#Wave		#Intensity
3199.438477	59.220352
3198.732422	45.286152
3198.026367	69.658493
3197.319336	41.787594
3196.613281	69.633484
3195.906250	38.291542
3195.199219	31.323818
3194.492188	38.277790
3193.785156	59.145966
3193.078125	45.221146
3192.371094	41.735100
3191.663086	45.204903
3190.956055	55.626812
3190.248047	52.140770
3189.540039	38.229694
3188.832031	24.323618
3188.124023	59.061031
3187.416016	45.156204
3186.708008	41.675159
3185.999023	59.029202
3185.291016	41.660187
3184.582031	41.652699
3183.873047	31.233912
3183.164062	48.577351
3182.455078	69.383743
3181.746094	55.497017
3181.036133	41.615284
3180.327148	45.075119
3179.617188	58.933788
3178.908203	55.457123
3178.198242	24.258129
3177.488281	55.437183
3176.777344	62.355618
3176.067383	58.880829
3175.357422	55.407284
3174.646484	31.160992
3173.936523	48.463936
3173.225586	65.760658
3172.514648	65.748825
3171.803711	72.656685
3171.091797	79.562057
3170.380859	72.630547
3169.669922	51.869629
3168.958008	51.860298
3168.246094	69.134621
3167.534180	69.122185
3166.822266	55.287796
3166.110352	69.097305
3165.398438	65.630630
3164.686523	44.897083
3163.973633	69.060005
3163.260742	62.142818
3162.548828	44.872845
3161.835938	65.571579
3161.123047	51.757717
3160.410156	58.648186
3159.696289	55.188354
3158.983398	72.421677
3158.269531	58.616512
3157.556641	68.948181
3156.842773	79.276131
3156.128906	58.584850
3155.415039	51.683205
3154.700195	58.563747
3153.986328	44.775974
3153.272461	72.317390
3152.557617	61.975170
3151.842773	68.848892
3151.127930	82.603783
3150.413086	61.941677
3149.698242	72.252266
3148.983398	75.679214
3148.267578	58.468853
3147.552734	75.651939
3146.836914	65.323990
3146.121094	72.187187
3145.405273	72.174171
3144.689453	65.288673
3143.973633	68.712532
3143.257812	54.960114
3142.541016	58.384590
3141.825195	54.940296
3141.108398	58.363541
3140.391602	75.515663
3139.674805	75.502052
3138.958008	89.213600
3138.241211	85.766838
3137.523438	72.031151
3136.806641	92.594772
3136.088867	75.433983
3135.371094	85.704971
3134.653320	71.979187
3133.935547	71.966202
3133.217773	68.526878
3132.500000	99.346039
3131.781250	82.202576
3131.063477	78.763252
3130.344727	78.749039
3129.625977	95.851097
3128.907227	119.792244
3128.188477	102.660538
3127.469727	102.642006
3126.750000	102.623474
3126.031250	68.403297
3125.311523	78.649590
3124.591797	95.730042
3123.872070	112.804321
3123.152344	75.189301
3122.432617	92.261116
3121.712891	85.411537
3120.992188	105.891174
3120.272461	88.795914
3119.551758	102.438316
3118.831055	116.075790
3118.110352	105.814690
3117.389648	88.731773
3116.668945	109.188606
3115.947266	88.699715
3115.226562	105.738243
3114.504883	102.308846
3113.783203	109.109711
3113.062500	126.135307
3112.339844	126.112511
3111.618164	102.234909
3110.896484	129.474152
3110.173828	139.670532
3109.452148	112.397430
3108.729492	132.809311
3108.006836	102.142540
3107.284180	136.165436
3106.561523	112.316170
3105.838867	122.504578
3105.116211	129.287003
3104.392578	105.451904
3103.668945	108.833893
3102.946289	122.415985
3102.222656	132.593338
3101.499023	132.569351
3100.774414	135.943970
3100.050781	125.725426
3099.327148	142.689529
3098.602539	139.266968
3097.877930	112.072639
3097.153320	118.843414
3096.428711	129.006638
3095.704102	139.166199
3094.979492	132.353638
3094.254883	156.081177
3093.529297	152.660461
3092.803711	145.849152
3092.078125	145.822754
3091.353516	179.702484
3090.626953	149.159958
3089.901367	118.628494
3089.175781	135.550873
3088.449219	176.184235
3087.723633	176.152328
3086.997070	155.798843
3086.270508	135.452713
3085.543945	182.828049
3084.817383	162.484390
3084.090820	169.223923
3083.363281	189.496460
3082.636719	169.162613
3081.909180	152.218781
3081.181641	152.191208
3080.454102	155.545044
3079.726562	148.755264
3078.999023	182.530197
3078.270508	162.219666
3077.542969	179.085083
3076.814453	172.295929
3076.086914	216.175308
3075.358398	141.839325
3074.629883	175.578766
3073.900391	182.298752
3073.171875	182.265701
3072.443359	175.483307
3071.713867	188.947754
3070.984375	199.033859
3070.254883	202.370621
3069.525391	168.611603
3068.795898	182.067505
3068.066406	192.147522
3067.336914	188.742264
3066.606445	188.708038
3065.875977	198.781342
3065.146484	178.533890
3064.416016	178.501511
3063.685547	218.877228
3062.954102	188.536942
3062.223633	205.333328
3061.493164	215.392609
3060.761719	215.353516
3060.030273	218.678726
3059.298828	218.639038
3058.567383	235.414703
3057.835938	221.922150
3057.104492	231.967407
3056.372070	262.176422
3055.640625	241.965073
3054.908203	228.481079
3054.175781	208.283173
3053.443359	218.321747
3052.710938	245.147583
3051.978516	241.745499
3051.245117	224.916763
3050.512695	245.014069
3049.779297	251.681061
3049.045898	261.700775
3048.313477	258.298706
3047.579102	248.190018
3046.845703	251.498245
3046.112305	241.394455
3045.377930	254.758972
3044.644531	271.470093
3043.910156	264.719025
3043.175781	281.422241
3042.441406	261.273163
3041.707031	291.367126
3040.972656	291.314148
3040.237305	318.043854
3039.502930	261.083282
3038.767578	277.768890
3038.032227	314.524445
3037.296875	341.230438
3036.561523	314.410095
3035.826172	324.385468
3035.089844	327.670074
3034.354492	337.639374
3033.618164	327.550903
3032.881836	367.592316
3032.145508	357.502045
3031.409180	417.566620
3030.672852	367.391785
3029.936523	384.021545
3029.199219	397.306549
3028.462891	447.305817
3027.725586	363.787048
3026.988281	437.132416
3026.250977	470.415680
3025.513672	423.630646
3024.775391	453.569153
3024.038086	503.503510
3023.299805	506.745758
3022.562500	526.653015
3021.824219	536.555054
3021.085938	563.113647
3020.347656	549.685425
3019.608398	579.562744
3018.870117	666.042786
3018.130859	635.955078
3017.392578	605.878296
3016.653320	619.081543
3015.914062	685.524597
3015.174805	642.146362
3014.434570	698.581238
3013.695312	675.172180
3012.956055	734.905823
3012.215820	758.045227
3011.475586	714.693176
3010.735352	824.240051
3009.995117	777.568726
3009.254883	823.939758
3008.513672	906.832947
3007.773438	866.814148
3007.032227	879.938293
3006.291992	863.178345
3005.550781	932.726624
3004.809570	826.357971
3004.067383	836.161682
3003.326172	852.596741
3002.584961	905.511597
3001.842773	812.490479
3001.100586	862.077576
3000.359375	861.920410
2999.616211	828.618530
2998.874023	772.131653
2998.131836	798.496948
2997.389648	814.914673
2996.646484	788.269592
2995.903320	788.125793
2995.161133	708.521667
2994.417969	688.530945
2993.673828	791.004211
2992.930664	688.279785
2992.187500	721.238525
2991.443359	671.489502
2990.700195	625.065796
2989.956055	621.645142
2989.211914	638.061768
2988.467773	631.334534
2987.722656	660.962585
2986.978516	574.932495
2986.234375	614.470825
2985.489258	591.237671
2984.744141	610.944153
2983.999023	571.211060
2983.253906	594.215088
2982.508789	627.112549
2981.763672	524.698364
2981.017578	597.189087
2980.271484	597.080017
2979.526367	563.989136
2978.780273	580.374023
2978.034180	550.595215
2977.288086	547.198303
2976.541016	530.619507
2975.794922	576.654968
2975.047852	566.665894
2974.300781	592.914124
2973.554688	609.272583
2972.806641	589.404663
2972.059570	566.251831
2971.312500	622.104919
2970.565430	651.609863
2969.817383	730.459290
2969.069336	776.382385
2968.321289	717.035706
2967.573242	687.307678
2966.825195	785.820557
2966.077148	802.113647
2965.329102	831.547791
2964.580078	887.260254
2963.831055	946.237915
2963.082031	1034.758423
2962.333008	1050.990967
2961.583984	1182.148560
2960.834961	1195.064941
2960.085938	1368.821289
2959.335938	1398.108398
2958.585938	1555.357178
2957.836914	1801.128418
2957.086914	1925.444336
2956.336914	2154.660156
2955.585938	2393.628906
2954.835938	2622.674805
2954.084961	2940.135986
2953.334961	3513.098145
2952.583984	4039.978760
2951.833008	4782.878906
2951.082031	5869.417969
2950.331055	6945.734863
2949.579102	8624.099609
2948.828125	10730.685547
2948.076172	12987.053711
2947.324219	15265.502930
2946.572266	17821.214844
2945.820312	18953.041016
2945.068359	19050.957031
2944.316406	18259.410156
2943.563477	16889.476562
2942.811523	14460.967773
2942.058594	12213.095703
2941.305664	10371.224609
2940.552734	8445.086914
2939.799805	7199.056641
2939.045898	5979.608398
2938.292969	5204.669434
2937.539062	4589.977539
2936.785156	3965.718994
2936.031250	3397.166260
2935.277344	2969.120850
2934.523438	2681.505371
2933.769531	2240.701416
2933.014648	2207.680908
2932.260742	2057.298828
2931.505859	1845.036011
2930.750977	1665.442627
2929.996094	1489.173706
2929.241211	1345.549194
2928.485352	1364.846802
2927.730469	1231.067993
2926.974609	1120.131592
2926.219727	1061.325317
2925.463867	1044.855713
2924.708008	934.014282
2923.952148	914.320068
2923.195312	949.937683
2922.439453	845.679749
2921.682617	839.020569
2920.925781	835.615234
2920.168945	757.442139
2919.412109	763.803589
2918.655273	757.164185
2917.898438	711.538696
2917.140625	665.929993
2916.383789	734.012451
2915.625977	665.685547
2914.868164	688.289917
2914.110352	610.258240
2913.352539	632.864441
2912.594727	606.789368
2911.835938	626.143555
2911.078125	557.911438
2910.319336	648.615112
2909.560547	603.101318
2908.801758	521.943420
2908.042969	593.155945
2907.284180	583.324890
2906.524414	609.138550
2905.764648	566.913086
2905.005859	557.092224
2904.246094	582.896423
2903.486328	631.355103
2902.726562	602.104980
2901.965820	582.575195
2901.206055	569.524353
2900.445312	579.125732
2899.685547	588.723511
2898.924805	569.210449
2898.164062	520.602478
2897.402344	552.836426
2896.641602	575.361328
2895.880859	591.414429
2895.119141	617.155151
2894.357422	636.425171
2893.595703	639.538147
2892.833984	526.391663
2892.072266	600.557312
2891.310547	629.500793
2890.547852	616.474548
2889.786133	593.771973
2889.023438	622.700623
2888.260742	567.746887
2887.498047	619.246338
2886.735352	648.154236
2885.972656	670.603394
2885.208984	615.681152
2884.446289	657.465149
2883.682617	721.789673
2882.918945	621.784668
2882.155273	663.544434
2881.391602	689.186279
2880.626953	730.918152
2879.863281	666.397400
2879.098633	695.243225
2878.333984	624.316467
2877.569336	682.117126
2876.804688	608.001892
2876.040039	672.216919
2875.275391	607.778015
2874.509766	572.299255
2873.745117	594.695862
2872.979492	620.298218
2872.213867	555.916199
2871.448242	555.813782
2870.682617	517.164917
2869.916016	542.762573
2869.150391	481.653198
2868.383789	536.141724
2867.618164	494.315063
2866.851562	484.596252
2866.084961	503.758881
2865.317383	494.041870
2864.550781	493.950806
2863.783203	452.170319
2863.016602	471.324707
2862.249023	432.769440
2861.481445	423.074341
2860.713867	464.655090
2859.946289	493.404755
2859.177734	438.857086
2858.410156	438.776154
2857.641602	467.514648
2856.873047	425.808105
2856.104492	425.729553
2855.335938	390.446838
2854.567383	409.573578
2853.798828	425.494049
2853.029297	441.408630
2852.259766	412.544983
2851.491211	495.602142
2850.721680	476.329651
2849.951172	485.830536
2849.181641	508.110535
2848.412109	463.285736
2847.641602	456.811279
2846.871094	475.890320
2846.101562	469.415894
2845.331055	437.402100
2844.560547	523.508789
2843.789062	504.262909
2843.018555	513.742676
2842.247070	443.459930
2841.475586	526.312073
2840.705078	459.242096
2839.933594	452.780090
2839.161133	411.252441
2838.389648	401.614258
2837.618164	411.100555
2836.845703	398.279663
2836.073242	302.636658
2835.300781	337.616394
2834.528320	308.893799
2833.755859	321.572266
2832.983398	235.563873
2832.209961	273.712830
2831.437500	264.115906
2830.664062	279.974762
2829.890625	257.656403
2829.117188	295.773041
2828.343750	241.662338
2827.569336	225.721771
2826.795898	225.680054
2826.021484	209.748306
2825.248047	219.241791
2824.473633	216.024429
2823.698242	184.222061
2822.923828	149.255783
2822.149414	171.453659
2821.374023	203.166763
2820.599609	187.259720
2819.824219	161.838638
2819.048828	241.126694
2818.273438	193.500107
2817.498047	168.091949
2816.721680	180.744690
2815.946289	193.392731
2815.169922	180.677811
2814.393555	167.967575
2813.617188	164.767883
2812.840820	174.241486
2812.064453	180.544113
2811.287109	174.176987
2810.510742	186.809830
2809.733398	164.615479
2808.956055	196.235962
2808.178711	174.048065
2807.401367	180.343689
2806.623047	199.290344
2805.845703	167.625916
2805.067383	167.594879
2804.290039	177.048584
2803.511719	173.854797
2802.733398	151.699722
2801.954102	180.110062
2801.175781	161.121262
2800.396484	195.836624
2799.618164	183.168060
2798.838867	179.976639
2798.059570	189.414001
2797.280273	170.441010
2796.500977	208.278198
2795.720703	179.843292
2794.941406	160.882599
2794.161133	170.314713
2793.380859	201.817062
2792.600586	138.723511
2791.820312	167.067810
2791.040039	173.340118
2790.258789	138.646393
2789.478516	201.630081
2788.697266	188.993164
2787.916016	176.360901
2787.134766	195.220520
2786.353516	182.591782
2785.572266	166.820160
2784.790039	163.642258
2784.008789	179.343826
2783.226562	188.747955
2782.444336	201.293808
2781.662109	194.967194
2780.879883	166.634583
2780.096680	179.177536
2779.314453	150.858353
2778.531250	201.107147
2777.748047	179.077820
2776.964844	185.326843
2776.181641	204.135757
2775.398438	160.138321
2774.615234	185.223679
2773.831055	213.438507
2773.046875	197.707794
2772.263672	213.359268
2771.479492	166.263855
2770.695312	194.461227
2769.910156	181.881561
2769.125977	172.441864
2768.340820	181.814011
2767.555664	209.987534
2766.771484	194.280731
2765.986328	197.377625
2765.200195	209.870544
2764.415039	209.831558
2763.628906	216.055038
2762.843750	222.276199
2762.057617	237.885254
2761.271484	259.747467
2760.485352	240.925766
2759.699219	222.111038
2758.912109	231.453003
2758.125977	237.664307
2757.338867	237.620132
2756.551758	265.709961
2755.764648	278.162231
2754.977539	278.110535
2754.190430	324.922668
2753.403320	302.996521
2752.615234	281.078522
2751.827148	337.231506
2751.039062	334.046875
2750.250977	321.499329
2749.462891	324.560333
2748.674805	352.581696
2747.885742	421.147552
2747.097656	371.164703
2746.308594	452.175385
2745.519531	448.973389
2744.730469	442.655273
2743.941406	442.572937
2743.151367	535.974487
2742.362305	579.492493
2741.572266	582.499573
2740.782227	678.937317
2739.992188	691.266235
2739.202148	744.062500
2738.412109	787.501099
2737.621094	778.018311
2736.831055	852.549316
2736.040039	867.945190
2735.249023	808.687195
2734.458008	889.390259
2733.666992	892.333801
2732.875000	820.669922
2732.083984	764.572693
2731.291992	764.430298
2730.500977	702.150696
2729.708984	646.106812
2728.916016	574.555237
2728.124023	503.030334
2727.332031	490.518433
2726.539062	425.243683
2725.747070	394.130554
2724.954102	384.748688
2724.161133	384.676971
2723.368164	331.877136
2722.574219	316.309906
2721.781250	244.939453
2720.987305	266.593262
2720.193359	263.444214
2719.399414	220.012375
2718.605469	278.836945
2717.811523	195.149460
2717.017578	229.180435
2716.222656	235.330612
2715.428711	201.232071
2714.633789	182.622726
2713.838867	191.872849
2713.043945	191.837051
2712.248047	197.988403
2711.453125	154.649597
2710.657227	185.544891
2709.862305	200.969467
2709.066406	170.019348
2708.270508	197.803787
2707.473633	173.046021
2706.677734	160.655609
2705.881836	151.358765
2705.084961	160.595642
2704.288086	179.092468
2703.491211	157.448471
2702.694336	132.725891
2701.897461	141.959335
2701.099609	151.189316
2700.302734	144.991241
2699.504883	132.626801
2698.707031	178.858551
2697.909180	157.242813
2697.111328	172.626526
2696.313477	135.609787
2695.514648	163.317657
2694.716797	172.529816
2693.917969	129.373184
2693.119141	150.907196
2692.320312	150.878998
2691.521484	132.379272
2690.721680	129.276535
2689.922852	160.026749
2689.123047	132.305084
2688.323242	163.043228
2687.523438	175.315613
2686.723633	135.306046
2685.923828	166.026382
2685.123047	126.033508
2684.323242	150.597260
2683.522461	178.224640
2682.721680	181.263580
2681.920898	144.369415
2681.119141	181.195801
2680.318359	141.244888
2679.517578	141.218475
2678.715820	184.163559
2677.914062	122.752739
2677.112305	138.070999
2676.310547	144.180511
2675.508789	162.556122
2674.706055	159.459183
2673.903320	174.759094
2673.101562	137.941895
2672.298828	186.952911
2671.496094	150.147186
2670.692383	162.373703
2669.889648	159.280243
2669.086914	171.500458
2668.283203	162.282547
2667.479492	134.699921
2666.675781	162.221802
2665.872070	177.492508
2665.067383	162.161057
2664.263672	149.894409
2663.458984	146.807846
2662.655273	186.533371
2661.850586	162.039627
2661.045898	162.009277
2660.240234	140.585495
2659.435547	171.115494
2658.629883	186.358749
2657.825195	164.942413
2657.019531	155.749756
2656.213867	170.987305
2655.408203	164.849716
2654.601562	195.340836
2653.795898	143.426544
2652.989258	152.552826
2652.183594	164.726181
2651.376953	186.044693
2650.569336	173.812454
2649.762695	158.536026
2648.956055	164.602692
2648.148438	192.000473
2647.341797	167.588043
2646.534180	155.370682
2645.726562	152.295624
2644.917969	155.312408
2644.110352	179.641449
2643.302734	194.828751
2642.494141	164.355927
2641.685547	173.454269
2640.876953	146.039352
2640.068359	176.431107
2639.259766	170.315323
2638.450195	170.283371
2637.641602	209.774063
2636.832031	173.259094
2636.022461	179.304703
2635.212891	182.309555
2634.403320	209.616638
2633.593750	191.353180
2632.783203	194.354034
2631.972656	154.846802
2631.163086	166.960297
2630.352539	163.893875
2629.541992	182.070114
2628.730469	188.103806
2627.919922	200.201920
2627.108398	197.131531
2626.296875	166.772278
2625.486328	166.740952
2624.673828	178.833969
2623.862305	212.136047
2623.050781	178.766800
2622.238281	175.703827
2621.426758	169.613205
2620.614258	211.976669
2619.801758	227.075180
2618.989258	169.517609
2618.175781	199.751068
2617.363281	187.609680
2616.549805	181.523621
2615.736328	175.439850
2614.922852	172.382629
2614.109375	187.468658
2613.295898	190.456528
2612.482422	196.465820
2611.667969	184.340958
2610.853516	196.391953
2610.040039	190.313324
2609.224609	187.257263
2608.410156	184.202332
2607.595703	181.148544
2606.780273	178.095886
2605.965820	172.026382
2605.150391	208.203278
2604.334961	217.214722
2603.519531	214.157547
2602.703125	214.117249
2601.887695	192.970779
2601.071289	189.919876
2600.255859	198.926224
2599.439453	204.915726
2598.623047	213.915848
2597.805664	201.826263
2596.989258	201.788269
2596.171875	174.649490
2595.355469	201.712296
2594.538086	165.553543
2593.720703	186.588852
2592.903320	177.526932
2592.084961	177.493500
2591.267578	195.506851
2590.449219	198.477264
2589.630859	171.379898
2588.812500	210.426895
2587.994141	222.409378
2587.175781	192.317825
2586.356445	177.259583
2585.538086	201.256866
2584.718750	222.241806
2583.899414	174.156708
2583.080078	192.136703
2582.260742	210.109909
2581.440430	216.072311
2580.621094	225.032913
2579.800781	218.990738
2578.980469	170.960541
2578.160156	206.913208
2577.339844	173.894257
2576.519531	200.839966
2575.698242	194.808014
2574.877930	236.722015
2574.056641	200.726379
2573.235352	224.651321
2572.414062	185.676727
2571.591797	227.560806
2570.770508	227.517883
2569.948242	218.495682
2569.125977	209.476883
2568.303711	206.445404
2567.481445	182.475266
2566.659180	221.321655
2565.836914	230.250702
2565.013672	200.310211
2564.190430	230.163803
2563.368164	203.223175
2562.543945	236.052948
2561.720703	212.108810
2560.897461	224.016296
2560.073242	194.110809
2559.250000	197.059906
2558.425781	220.904236
2557.601562	217.877899
2556.777344	232.757080
2555.952148	196.911102
2555.127930	205.822723
2554.302734	220.695724
2553.477539	253.453949
2552.652344	196.762360
2551.827148	196.725189
2551.001953	211.588638
2550.176758	250.282913
2549.350586	199.592697
2548.524414	211.468719
2547.698242	208.450882
2546.872070	223.298019
2546.045898	229.209305
2545.219727	217.261246
2544.392578	223.171417
2543.565430	187.428558
2542.738281	211.189072
2541.911133	187.357681
2541.083984	240.842911
2540.256836	217.014908
2539.428711	214.001633
2538.601562	213.961151
2537.773438	252.545258
2536.945312	237.644699
2536.117188	228.689758
2535.288086	216.768753
2534.459961	190.007889
2533.630859	264.179718
2532.801758	258.194244
2531.972656	249.243820
2531.143555	219.530396
2530.314453	222.454910
2529.485352	246.136841
2528.655273	240.160370
2527.825195	237.150528
2526.995117	231.178009
2526.165039	219.281204
2525.334961	222.202393
2524.504883	225.122452
2523.673828	222.118256
2522.842773	278.335510
2522.011719	254.599152
2521.180664	254.550934
2520.349609	233.787384
2519.518555	236.701874
2518.686523	210.033127
2517.854492	224.781601
2517.023438	224.739014
2516.191406	245.392166
2515.358398	206.918030
2514.526367	233.477539
2513.693359	271.846375
2512.861328	242.251938
2512.028320	221.529892
2511.195312	265.785492
2510.362305	250.972061
2509.529297	253.876541
2508.695312	274.488861
2507.861328	300.995239
2507.028320	250.781799
2506.194336	256.633881
2505.359375	262.483734
2504.525391	268.331360
2503.691406	232.902817
2502.856445	268.229584
2502.021484	247.549576
2501.186523	259.288452
2500.351562	268.076965
2499.516602	276.862152
2498.681641	247.361786
2497.845703	256.147522
2497.009766	294.366577
2496.173828	288.424500
2495.337891	244.231552
2494.501953	285.373047
2493.666016	297.084625
2492.829102	276.442108
2491.992188	288.150909
2491.156250	293.975739
2490.318359	290.980713
2489.481445	246.845856
2488.644531	290.870239
2487.806641	282.002441
2486.969727	293.696747
2486.131836	290.704559
2485.293945	299.456909
2484.456055	278.852966
2483.617188	269.995789
2482.779297	261.141968
2481.940430	281.627716
2481.101562	290.373413
2480.262695	258.060638
2479.423828	258.011627
2478.584961	281.413727
2477.745117	334.115295
2476.905273	325.260986
2476.066406	284.183044
2475.226562	313.420685
2474.386719	240.145889
2473.545898	272.308807
2472.706055	301.532013
2471.865234	333.670990
2471.024414	304.343719
2470.183594	313.063354
2469.342773	292.526917
2468.501953	295.395996
2467.660156	333.353851
2466.819336	327.443268
2465.977539	289.381409
2465.135742	295.171326
2464.293945	298.037109
2463.452148	292.137665
2462.609375	321.290283
2461.767578	297.867035
2460.924805	297.810364
2460.082031	286.077057
2459.239258	306.452789
2458.396484	329.738831
2457.552734	277.161285
2456.709961	323.779449
2455.866211	274.139404
2455.022461	338.235291
2454.178711	311.933502
2453.334961	271.068146
2452.490234	314.728882
2451.646484	305.928131
2450.801758	329.174255
2449.957031	273.774200
2449.112305	326.136932
2448.267578	323.163422
2447.421875	323.101868
2446.577148	352.143066
2445.731445	337.527374
2444.885742	343.281403
2444.040039	311.221283
2443.194336	328.610291
2442.347656	282.027649
2441.501953	316.857269
2440.655273	334.235260
2439.808594	319.642334
2438.961914	331.202545
2438.115234	363.091461
2437.267578	342.692993
2436.420898	325.205933
2435.573242	351.271545
2434.725586	336.691986
2433.877930	339.529755
2433.030273	345.267822
2432.182617	353.904541
2431.333984	365.438232
2430.485352	376.967529
2429.637695	310.214111
2428.789062	342.040009
2427.939453	350.669006
2427.090820	370.884888
2426.241211	376.608093
2425.392578	330.193298
2424.542969	379.360229
2423.693359	344.543915
2422.843750	358.952026
2421.993164	390.719971
2421.143555	344.346649
2420.292969	396.357025
2419.442383	364.463165
2418.591797	381.745636
2417.741211	361.432526
2416.890625	364.254425
2416.039062	393.088440
2415.187500	369.894928
2414.335938	346.710266
2413.484375	355.310150
2412.632812	407.228943
2411.781250	352.286804
2410.928711	418.621552
2410.077148	386.790131
2409.224609	404.031891
2408.372070	326.049133
2407.518555	343.295868
2406.666016	374.957428
2405.813477	354.699615
2404.959961	389.230042
2404.106445	340.150848
2403.252930	412.137939
2402.399414	391.888397
2401.544922	348.598755
2400.691406	365.814697
2399.836914	365.744751
2398.982422	345.519501
2398.127930	348.332214
2397.273438	333.874451
2396.418945	345.321320
2395.563477	345.255249
2394.708008	356.695526
2393.853516	365.255371
2392.998047	330.679779
2392.141602	365.115631
2391.286133	396.663910
2390.429688	304.625549
2389.574219	356.286224
2388.717773	387.818054
2387.861328	407.849060
2387.004883	364.696594
2386.147461	330.173859
2385.291016	350.204346
2384.433594	384.577026
2383.576172	318.506561
2382.718750	329.921082
2381.861328	375.751190
2381.002930	347.001434
2380.145508	332.598816
2379.287109	344.001862
2378.428711	381.195679
2377.570312	361.063599
2376.711914	340.939178
2375.852539	343.738342
2374.994141	383.767609
2374.134766	377.967316
2373.275391	360.717834
2372.416016	392.133942
2371.556641	374.888336
2370.696289	349.065735
2369.836914	383.326569
2368.976562	420.434387
2368.116211	331.707733
2367.255859	417.414185
2366.395508	371.598907
2365.534180	348.664429
2364.673828	360.027008
2363.812500	397.096497
2362.951172	385.595306
2362.089844	402.655640
2361.228516	391.157745
2360.366211	419.628906
2359.504883	379.591400
2358.642578	359.543945
2357.780273	373.739838
2356.917969	410.749695
2356.055664	430.634064
2355.192383	345.011414
2354.329102	410.513306
2353.466797	421.835480
2352.603516	421.754517
2351.740234	427.371857
2350.875977	472.867401
2350.012695	381.638977
2349.148438	429.973297
2348.284180	449.819458
2347.419922	458.272308
2346.555664	449.646729
2345.691406	426.797821
2344.826172	438.094940
2343.961914	463.608856
2343.096680	477.738220
2342.231445	477.646454
2341.366211	491.767639
2340.500000	491.673157
2339.634766	423.382812
2338.768555	414.778595
2337.902344	491.389801
2337.036133	477.096100
2336.169922	522.433411
2335.303711	488.267792
2334.436523	485.335724
2333.569336	556.184326
2332.702148	541.891785
2331.834961	536.114441
2330.967773	547.355530
2330.100586	569.934204
2329.232422	552.814941
2328.364258	524.364624
2327.497070	527.097595
2326.627930	566.662659
2325.759766	538.225952
2324.891602	574.941345
2324.022461	546.513977
2323.153320	552.071106
2322.285156	557.626099
2321.415039	563.178894
2320.545898	633.807983
2319.676758	594.080688
2318.806641	659.019836
2317.936523	622.130737
2317.066406	607.874390
2316.196289	675.600037
2315.326172	678.296204
2314.455078	768.587769
2313.584961	751.488892
2312.713867	740.045776
2311.842773	864.161865
2310.971680	796.231140
2310.099609	818.661560
2309.228516	883.419739
2308.356445	967.906128
2307.484375	1060.823853
2306.612305	1119.856323
2305.740234	1204.248169
2304.868164	1353.460815
2303.995117	1505.435059
2303.123047	1620.708496
2302.250000	1964.202026
2301.376953	2048.349609
2300.502930	2422.615234
2299.629883	2929.109619
2298.755859	3331.219971
2297.882812	3755.697998
2297.008789	4385.494629
2296.134766	4514.105957
2295.259766	4797.423340
2294.385742	4709.289062
2293.510742	4491.806641
2292.636719	4190.044922
2291.761719	3708.458496
2290.885742	3381.664307
2290.010742	3074.669434
2289.135742	2759.362793
2288.259766	2536.887939
2287.383789	2275.174805
2286.507812	2106.236816
2285.631836	1987.903931
2284.755859	1889.267212
2283.878906	1843.995605
2283.002930	1706.138428
2282.125977	1624.446533
2281.249023	1685.844482
2280.371094	1657.473877
2279.494141	1573.034424
2278.617188	1592.354858
2277.739258	1698.557617
2276.861328	1656.194336
2275.983398	1832.389038
2275.105469	1896.464600
2274.226562	2016.530029
2273.348633	1960.136597
2272.469727	2096.941162
2271.590820	2186.107666
2270.711914	2188.483887
2269.832031	2344.750977
2268.953125	2635.237061
2268.073242	2735.418213
2267.194336	3090.033936
2266.314453	3360.636230
2265.433594	3667.472900
2264.553711	4136.289062
2263.673828	4719.487793
2262.792969	5506.401367
2261.912109	6538.809570
2261.031250	8439.326172
2260.150391	10757.920898
2259.268555	15082.743164
2258.387695	22344.826172
2257.505859	33307.054688
2256.624023	46881.996094
2255.742188	57578.613281
2254.860352	60643.578125
2253.977539	55283.867188
2253.095703	47339.171875
2252.212891	40058.121094
2251.330078	34415.675781
2250.447266	28889.642578
2249.564453	23346.248047
2248.680664	19194.750000
2247.797852	15225.853516
2246.914062	12333.116211
2246.030273	10162.413086
2245.146484	8114.999023
2244.261719	6772.319824
2243.377930	5343.922852
2242.493164	4697.625000
2241.608398	3887.512451
2240.723633	3389.098877
2239.838867	2929.793701
2238.953125	2373.395752
2238.068359	2161.761475
2237.182617	1969.655640
2236.296875	1738.738525
2235.411133	1552.342773
2234.525391	1482.630493
2233.638672	1351.874756
2232.752930	1298.880493
2231.866211	1290.304321
2230.979492	1265.085449
2230.092773	1353.601074
2229.205078	1284.007812
2228.318359	1067.488647
2227.430664	1100.547607
2226.542969	964.524719
2225.655273	928.313660
2224.767578	797.917908
2223.879883	941.803772
2222.991211	811.455872
2222.102539	811.298523
2221.213867	811.141235
2220.325195	664.287170
2219.436523	680.762268
2218.546875	680.630249
2217.658203	713.693237
2216.768555	716.320496
2215.878906	702.355591
2214.989258	693.925415
2214.099609	619.159912
2213.208984	690.892578
2212.318359	676.943359
2211.427734	696.149414
2210.537109	709.824158
2209.646484	748.346313
2208.755859	969.072205
2207.864258	1167.629517
2206.972656	1440.624756
2206.082031	1423.789429
2205.189453	1340.750488
2204.297852	1161.206543
2203.406250	990.005188
2202.513672	898.827332
2201.621094	876.599915
2200.728516	832.332581
2199.835938	796.348938
2198.943359	694.259338
2198.049805	666.579834
2197.156250	649.926758
2196.263672	616.759766
2195.369141	591.864197
2194.475586	605.510803
2193.582031	583.378845
2192.687500	519.986633
2191.792969	569.398499
2190.898438	555.536865
2190.003906	549.929626
2189.109375	541.575317
2188.214844	470.006989
2187.319336	513.884338
2186.423828	511.036865
2185.528320	527.419373
2184.632812	486.120148
2183.736328	450.328796
2182.840820	472.204193
2181.944336	469.367493
2181.047852	485.742004
2180.151367	480.159973
2179.254883	471.836823
2178.357422	427.861755
2177.460938	449.715881
2176.563477	435.920166
2175.666016	416.647614
2174.768555	454.934479
2173.870117	438.405701
2172.972656	473.933899
2172.074219	451.929871
2171.175781	416.242249
2170.277344	465.443420
2169.378906	443.453857
2168.480469	394.104431
2167.581055	446.017456
2166.681641	407.629791
2165.782227	434.902771
2164.882812	456.695709
2163.983398	475.745941
2163.083008	429.181396
2162.183594	429.097778
2161.283203	464.537628
2160.382812	401.610138
2159.482422	439.773010
2158.581055	458.804169
2157.680664	420.488495
2156.779297	428.596283
2155.877930	463.994690
2154.976562	436.615753
2154.074219	441.987274
2153.172852	398.256531
2152.270508	411.815155
2151.369141	449.908936
2150.466797	425.285492
2149.563477	378.866394
2148.661133	411.493988
2147.757812	435.935089
2146.855469	394.989105
2145.952148	430.317963
2145.048828	449.295013
2144.144531	413.815247
2143.241211	375.627380
2142.336914	419.096588
2141.432617	380.922546
2140.528320	446.136475
2139.624023	421.571075
2138.719727	418.769501
2137.814453	405.093994
2136.910156	369.678040
2136.004883	410.371246
2135.099609	432.028381
2134.193359	434.660645
2133.288086	440.007965
2132.381836	415.481934
2131.475586	399.110565
2130.569336	426.177704
2129.663086	439.664337
2128.756836	409.730530
2127.849609	420.502167
2126.943359	409.570435
2126.036133	404.066711
2125.128906	439.235016
2124.220703	414.752014
2123.313477	439.063354
2122.405273	392.911987
2121.498047	411.799652
2120.589844	419.845215
2119.680664	389.973480
2118.772461	338.452484
2117.864258	389.821014
2116.955078	405.984161
2116.045898	422.140991
2115.136719	395.003387
2114.227539	416.565948
2113.317383	386.735565
2112.408203	373.140350
2111.498047	410.914795
2110.587891	372.994385
2109.677734	410.754028
2108.766602	418.779053
2107.856445	429.502197
2106.945312	388.907013
2106.034180	402.331970
2105.123047	342.860138
2104.211914	410.271973
2103.299805	429.082092
2102.388672	404.715179
2101.476562	399.240814
2100.564453	442.315369
2099.652344	436.835724
2098.739258	436.750214
2097.827148	420.491913
2096.914062	401.545044
2096.000977	404.160797
2095.087891	401.387756
2094.174805	366.295593
2093.260742	430.851562
2092.347656	390.382751
2091.433594	433.374542
2090.519531	379.464844
2089.604492	392.844025
2088.690430	460.021698
2087.776367	433.034943
2086.861328	451.774017
2085.946289	438.242432
2085.031250	432.780396
2084.115234	424.632904
2083.200195	448.732849
2082.284180	389.541962
2081.368164	432.441101
2080.452148	402.816437
2079.536133	383.943024
2078.620117	437.555511
2077.703125	394.527893
2076.786133	410.550537
2075.869141	448.029327
2074.952148	396.978058
2074.035156	445.171814
2073.118164	399.503540
2072.200195	463.762085
2071.282227	444.909821
2070.364258	431.424225
2069.446289	412.585663
2068.527344	441.969330
2067.609375	431.170258
2066.690430	417.697876
2065.771484	377.460510
2064.852539	420.210388
2063.932617	444.211639
2063.013672	433.422638
2062.093750	409.263214
2061.173828	398.485260
2060.253906	395.733124
2059.333984	382.288635
2058.413086	419.633057
2057.493164	443.601318
2056.572266	390.078735
2055.651367	408.700806
2054.730469	421.974121
2053.808594	405.870026
2052.887695	403.120575
2051.965820	413.717957
2051.043945	413.636658
2050.122070	378.870056
2049.199219	437.482239
2048.277344	426.728027
2047.354492	399.978882
2046.431641	437.224243
2045.508789	415.814453
2044.585938	405.072876
2043.663086	418.315369
2042.739258	402.249664
2041.815430	442.121277
2040.891602	471.325745
2039.967773	439.285034
2039.043945	401.933258
2038.119141	409.838043
2037.194336	447.008087
2036.269531	399.035828
2035.344727	406.936462
2034.419922	412.174774
2033.495117	446.656342
2032.569336	438.593994
2031.643555	380.039978
2030.717773	401.221954
2029.791992	398.486389
2028.865234	448.872925
2027.939453	424.884766
2027.012695	419.491089
2026.085938	453.916779
2025.159180	451.173431
2024.231445	405.976105
2023.304688	419.160736
2022.376953	429.687744
2021.449219	395.128754
2020.521484	450.729248
2019.593750	447.989624
2018.665039	424.048615
2017.737305	421.315277
2016.808594	439.777039
2015.879883	450.285339
2014.951172	429.010864
2014.021484	447.460144
2013.092773	444.724762
2012.163086	436.697144
2011.233398	396.919128
2010.303711	410.068909
2009.373047	452.309387
2008.443359	473.376709
2007.512695	457.419098
2006.582031	430.893677
2005.651367	436.094696
2004.720703	401.656464
2003.789062	409.503113
2002.858398	449.043823
2001.926758	409.341553
2000.995117	440.945465
2000.063477	419.739502
1999.130859	459.246918
1998.199219	411.657349
1997.266602	437.959198
1996.333984	451.061676
1995.401367	437.786316
1994.467773	440.336639
1993.535156	466.611969
1992.601562	440.162781
1991.667969	447.981415
1990.734375	450.527618
1989.800781	434.633789
1988.866211	463.517792
1987.931641	458.160034
1986.998047	465.967285
1986.063477	444.818726
1985.127930	439.467773
1984.193359	484.108337
1983.257812	468.229675
1982.322266	436.577332
1981.386719	418.084808
1980.451172	431.146912
1979.515625	494.143890
1978.579102	451.999756
1977.642578	454.537781
1976.707031	470.209137
1975.769531	441.226349
1974.833008	438.513275
1973.896484	441.051880
1972.958984	451.463806
1972.021484	467.120148
1971.083984	453.909027
1970.146484	501.037415
1969.208008	500.938324
1968.269531	461.506317
1967.332031	469.280029
1966.393555	469.187195
1965.454102	445.508606
1964.515625	406.118652
1963.576172	463.669525
1962.636719	440.006012
1961.697266	458.248871
1960.757812	445.067932
1959.818359	484.242767
1958.877930	505.082977
1957.938477	418.638733
1956.998047	455.179504
1956.057617	457.704803
1955.116211	481.148621
1954.175781	491.511017
1953.234375	462.660736
1952.292969	470.409271
1951.351562	483.380432
1950.410156	491.121704
1949.467773	470.129761
1948.526367	514.428955
1947.583984	446.446320
1946.641602	475.070923
1945.698242	506.293945
1944.755859	490.538116
1943.812500	503.484528
1942.870117	479.910828
1941.926758	539.792664
1940.982422	432.791412
1940.039062	484.838806
1939.094727	531.653259
1938.151367	469.012787
1937.207031	487.155548
1936.262695	466.222198
1935.317383	489.566437
1934.373047	525.919189
1933.427734	455.532684
1932.482422	481.467590
1931.537109	538.616333
1930.591797	489.081055
1929.645508	504.589874
1928.699219	470.683716
1927.753906	491.389893
1926.806641	454.900360
1925.860352	454.810059
1924.914062	446.924591
1923.966797	498.793518
1923.019531	503.889252
1922.072266	508.982910
1921.125000	521.863525
1920.177734	459.460205
1919.229492	464.559601
1918.281250	563.069336
1917.333008	534.420471
1916.384766	513.564270
1915.436523	459.004150
1914.487305	505.582062
1913.538086	464.006195
1912.588867	448.363831
1911.639648	544.148560
1910.690430	507.771057
1909.740234	510.260284
1908.790039	507.569244
1907.839844	502.290100
1906.889648	535.842224
1905.939453	473.621399
1904.989258	507.165802
1904.038086	470.846039
1903.086914	517.310364
1902.135742	504.277283
1901.184570	483.492828
1900.232422	480.811676
1899.280273	524.652466
1898.329102	519.380127
1897.375977	542.528015
1896.423828	537.254211
1895.471680	531.982422
1894.518555	537.040405
1893.565430	516.282288
1892.612305	505.855957
1891.659180	554.782593
1890.706055	544.352661
1889.751953	500.395264
1888.797852	500.295654
1887.843750	513.087708
1886.889648	520.719055
1885.935547	525.769958
1884.980469	507.627747
1884.025391	543.594543
1883.070312	595.001587
1882.115234	504.749298
1881.160156	569.017212
1880.204102	522.567810
1879.248047	494.152893
1878.291992	573.823669
1877.335938	594.290833
1876.379883	542.728882
1875.422852	534.905762
1874.466797	588.793335
1873.509766	568.110901
1872.552734	567.997681
1871.594727	537.049133
1870.637695	544.649353
1869.679688	529.129272
1868.721680	577.817200
1867.763672	621.350586
1866.805664	557.050415
1865.846680	600.570496
1864.888672	526.035889
1863.929688	582.372375
1862.970703	610.471252
1862.010742	571.882080
1861.051758	538.436218
1860.091797	571.653931
1859.131836	589.480591
1858.171875	599.612793
1857.211914	553.378296
1856.251953	525.092163
1855.291016	573.644775
1854.330078	624.738342
1853.369141	563.176208
1852.408203	560.504395
1851.446289	603.893311
1850.485352	580.747498
1849.523438	570.400146
1848.561523	672.579773
1847.599609	613.638428
1846.636719	621.184814
1845.674805	633.839783
1844.711914	666.932068
1843.749023	562.052673
1842.786133	590.037354
1841.822266	635.887268
1840.859375	622.993958
1839.895508	663.713379
1838.931641	638.058411
1837.967773	632.827454
1837.002930	650.559448
1836.039062	619.820984
1835.074219	688.552307
1834.109375	662.917847
1833.144531	670.432861
1832.178711	734.015381
1831.213867	708.387085
1830.248047	710.793091
1829.282227	738.669434
1828.316406	738.521729
1827.349609	710.366699
1826.383789	712.770264
1825.416992	684.631592
1824.450195	597.978577
1823.483398	648.740540
1822.516602	661.328613
1821.548828	658.653198
1820.581055	648.351196
1819.613281	635.511169
1818.645508	673.507019
1817.677734	586.977295
1816.708984	632.589172
1815.741211	609.602417
1814.772461	632.335876
1813.803711	632.209290
1812.833984	604.159363
1811.865234	598.962402
1810.895508	603.917419
1809.925781	598.722534
1808.956055	590.993286
1807.986328	565.515442
1807.015625	679.496765
1806.044922	654.011353
1805.074219	598.123108
1804.103516	585.333679
1803.132812	577.616211
1802.161133	666.151794
1801.190430	607.773376
1800.218750	630.438477
1799.247070	620.186584
1798.274414	632.716614
1797.302734	614.877258
1796.330078	576.806213
1795.357422	642.453491
1794.384766	589.219116
1793.412109	576.459290
1792.438477	573.815857
1791.464844	636.883667
1790.491211	583.692932
1789.517578	621.470398
1788.543945	596.087769
1787.569336	664.150940
1786.595703	578.175110
1785.621094	600.777588
1784.646484	575.419312
1783.670898	555.117737
1782.696289	628.166260
1781.720703	625.517944
1780.745117	592.609680
1779.769531	620.224365
1778.793945	607.496155
1777.817383	602.333740
1776.840820	665.205750
1775.864258	597.053467
1774.887695	586.858704
1773.911133	601.850037
1772.934570	662.153870
1771.957031	599.091125
1770.979492	624.137573
1770.001953	603.882751
1769.023438	636.465210
1768.045898	626.276611
1767.067383	565.798889
1766.088867	578.255981
1765.110352	633.440125
1764.131836	610.694458
1763.152344	618.109619
1762.172852	597.888306
1761.193359	595.256470
1760.213867	565.003296
1759.234375	662.803894
1758.253906	660.160461
1757.274414	559.643311
1756.293945	667.422302
1755.312500	614.607422
1754.332031	667.153870
1753.351562	639.436096
1752.370117	636.800415
1751.388672	621.632751
1750.407227	644.062378
1749.424805	643.932800
1748.443359	646.308289
1747.460938	636.159973
1746.478516	648.552246
1745.496094	608.364746
1744.512695	598.230042
1743.530273	570.581543
1742.546875	605.495361
1741.563477	617.881165
1740.580078	635.264038
1739.595703	612.631287
1738.612305	590.007568
1737.627930	679.871826
1736.643555	677.235840
1735.659180	637.123047
1734.673828	627.002625
1733.689453	576.926025
1732.704102	654.217163
1731.718750	624.127197
1730.733398	589.057373
1729.747070	633.857666
1728.761719	613.769958
1727.775391	641.085693
1726.789062	625.992493
1725.801758	603.424866
1724.815430	620.754150
1723.828125	628.106445
1722.840820	645.423706
1721.853516	592.972412
1720.866211	600.325806
1719.878906	664.957092
1718.890625	652.373108
1717.902344	662.199402
1716.914062	637.176086
1715.925781	639.536011
1714.936523	639.406982
1713.948242	641.765442
1712.958984	671.479492
1711.969727	614.155396
1710.979492	688.610168
1709.990234	603.965698
1709.000000	675.907410
1708.009766	631.050842
1707.019531	670.666687
1706.029297	677.981628
1705.038086	615.770996
1704.046875	637.988708
1703.055664	675.089050
1702.064453	692.322754
1701.073242	687.221069
1700.081055	617.629883
1699.089844	642.304504
1698.097656	701.681335
1697.104492	644.523987
1696.112305	661.742798
1695.119141	678.954651
1694.126953	654.043030
1693.133789	661.341675
1692.139648	671.113770
1691.146484	700.689270
1690.152344	688.170471
1689.159180	712.780701
1688.165039	712.636597
1687.169922	635.800598
1686.175781	662.879761
1685.180664	685.002136
1684.185547	662.611694
1683.190430	687.196960
1682.195312	706.829407
1681.200195	662.209656
1680.204102	676.898315
1679.208008	642.182312
1678.211914	676.624390
1677.215820	654.267090
1676.218750	705.971802
1675.221680	740.380005
1674.225586	720.490662
1673.227539	683.340820
1672.230469	680.736023
1671.233398	724.985046
1670.235352	677.994995
1669.237305	643.348572
1668.239258	709.758179
1667.240234	667.727478
1666.242188	692.226624
1665.243164	701.938171
1664.244141	721.495544
1663.245117	741.044922
1662.245117	767.970703
1661.246094	669.377258
1660.246094	738.134155
1659.246094	715.845032
1658.246094	671.429871
1657.245117	681.129639
1656.245117	732.619080
1655.244141	747.218323
1654.243164	685.630432
1653.242188	656.007935
1652.240234	709.917053
1651.238281	756.436401
1650.236328	753.827576
1649.234375	689.845581
1648.232422	724.068176
1647.230469	760.730896
1646.227539	731.134949
1645.224609	767.781250
1644.221680	782.340332
1643.217773	742.949951
1642.214844	728.090271
1641.210938	730.393555
1640.207031	698.388977
1639.203125	783.996887
1638.199219	810.782227
1637.194336	788.576660
1636.189453	766.380127
1635.184570	800.496521
1634.179688	707.328857
1633.173828	787.936462
1632.168945	733.953247
1631.163086	741.142212
1630.157227	809.466187
1629.151367	689.495789
1628.144531	799.359314
1627.137695	830.969299
1626.131836	830.800476
1625.124023	806.201355
1624.117188	771.841980
1623.110352	776.569214
1622.102539	769.086792
1621.094727	729.873718
1620.086914	824.906921
1619.078125	805.218811
1618.070312	783.099060
1617.061523	826.843018
1616.052734	855.937744
1615.043945	836.259155
1614.034180	853.152100
1613.025391	899.283203
1612.015625	838.185669
1611.005859	859.940002
1609.996094	830.537903
1608.985352	879.070984
1607.974609	866.719116
1606.964844	924.961365
1605.953125	861.499207
1604.942383	941.616821
1603.931641	878.177002
1602.919922	936.369324
1601.908203	919.157349
1600.896484	892.227722
1599.883789	930.936401
1598.872070	913.735840
1597.859375	930.557373
1596.846680	991.096863
1595.833984	949.607727
1594.820312	949.414368
1593.807617	958.931702
1592.793945	1007.280029
1591.780273	1011.928223
1590.766602	980.181580
1589.751953	984.833313
1588.737305	994.333435
1587.722656	1015.953247
1586.708008	1054.533691
1585.693359	1015.539185
1584.678711	1102.568481
1583.663086	1058.734497
1582.647461	1063.363159
1581.631836	1128.533569
1580.615234	1082.299683
1579.599609	1077.237549
1578.583008	1079.438110
1577.566406	1161.490234
1576.549805	1127.383423
1575.532227	1134.409912
1574.514648	1153.524780
1573.498047	1175.049683
1572.479492	1128.881226
1571.461914	1172.153564
1570.444336	1157.416504
1569.425781	1219.991699
1568.407227	1198.004761
1567.388672	1192.930664
1566.370117	1195.101562
1565.350586	1156.235962
1564.331055	1209.093872
1563.311523	1208.847046
1562.291992	1273.734375
1561.271484	1309.652588
1560.251953	1328.676270
1559.231445	1260.899780
1558.210938	1320.902466
1557.190430	1298.943481
1556.168945	1346.866577
1555.147461	1291.186035
1554.126953	1351.133179
1553.104492	1382.160522
1552.083008	1331.321533
1551.060547	1364.746948
1550.039062	1337.996948
1549.016602	1417.120728
1547.993164	1385.559814
1546.970703	1433.376465
1545.947266	1466.746460
1544.924805	1425.578491
1543.901367	1470.953857
1542.876953	1489.877319
1541.853516	1412.691528
1540.829102	1489.268066
1539.804688	1464.947998
1538.780273	1476.653687
1537.755859	1488.354492
1536.730469	1483.249878
1535.705078	1581.329590
1534.679688	1549.817871
1533.654297	1551.899292
1532.628906	1472.443970
1531.602539	1539.276123
1530.576172	1574.918091
1529.549805	1562.612549
1528.523438	1576.669678
1527.496094	1633.842896
1526.469727	1643.089111
1525.442383	1623.595215
1524.415039	1601.714966
1523.386719	1630.111450
1522.359375	1694.394409
1521.331055	1744.294556
1520.302734	1684.131470
1519.274414	1745.971802
1518.245117	1755.179077
1517.215820	1733.302734
1516.187500	1780.753052
1515.158203	1761.269897
1514.127930	1799.137695
1513.098633	1748.604126
1512.068359	1760.187256
1511.038086	1769.377808
1510.007812	1807.212524
1508.976562	1830.710449
1507.946289	1842.266968
1506.915039	1863.362061
1505.883789	1865.365356
1504.852539	1874.522339
1503.820312	1893.213135
1502.789062	1878.521362
1501.756836	1820.933960
1500.724609	1875.367920
1499.691406	1991.722900
1498.659180	1927.001465
1497.625977	1928.987671
1496.592773	1961.925537
1495.559570	1923.435059
1494.525391	1987.300293
1493.492188	2024.964600
1492.458008	2029.307007
1491.423828	2012.240723
1490.388672	2104.571533
1489.354492	2118.404785
1488.319336	2094.199219
1487.284180	2155.560303
1486.249023	2193.135010
1485.213867	2209.313965
1484.177734	2227.861084
1483.141602	2191.783936
1482.105469	2283.925293
1481.069336	2278.708740
1480.033203	2366.047852
1478.996094	2339.462158
1477.958984	2474.196533
1476.921875	2478.431396
1475.884766	2563.285889
1474.846680	2636.251709
1473.808594	2609.637207
1472.770508	2609.100586
1471.732422	2776.782227
1470.694336	2814.112061
1469.655273	2778.008789
1468.616211	2874.517822
1467.577148	3025.435059
1466.538086	3062.682129
1465.498047	3076.250244
1464.458008	3177.349609
1463.417969	3339.906738
1462.377930	3405.436279
1461.337891	3586.794434
1460.296875	3586.056396
1459.255859	3684.582520
1458.214844	3764.164062
1457.173828	3928.761230
1456.132812	3838.197754
1455.090820	4042.856445
1454.048828	3949.945557
1453.006836	4055.355225
1451.963867	4130.041016
1450.921875	4254.246094
1449.878906	4128.340332
1448.835938	4259.569824
1447.792969	4225.679199
1446.749023	4222.451172
1445.705078	4127.297363
1444.661133	4079.314453
1443.617188	4054.912598
1442.573242	4131.813477
1441.528320	4156.869141
1440.484375	4080.662598
1439.439453	3924.444580
1438.393555	3980.124756
1437.348633	3854.583496
1436.302734	3792.617676
1435.256836	3961.198242
1434.210938	3809.868164
1433.165039	3881.972412
1432.118164	3733.071533
1431.071289	3828.664551
1430.024414	3733.881592
1428.977539	3761.303711
1427.930664	3877.970947
1426.882812	3731.571533
1425.834961	3805.934326
1424.787109	3676.041504
1423.739258	3888.853027
1422.690430	3812.964600
1421.641602	3927.129395
1420.592773	3891.136963
1419.543945	3897.368652
1418.495117	3882.497070
1417.445312	3959.048340
1416.395508	4012.132324
1415.345703	3901.180420
1414.295898	3834.782959
1413.245117	3817.596436
1412.194336	3933.888184
1411.143555	3912.005615
1410.092773	3848.000488
1409.041992	3926.770508
1407.990234	3794.937988
1406.938477	3805.849854
1405.886719	3653.048096
1404.834961	3659.307861
1403.782227	3724.008057
1402.729492	3648.446533
1401.676758	3640.682129
1400.624023	3674.973877
1399.571289	3520.051270
1398.517578	3566.029785
1397.463867	3670.360107
1396.410156	3674.270020
1395.356445	3738.858398
1394.301758	3787.086426
1393.247070	3921.611572
1392.192383	3939.459717
1391.137695	4008.603027
1390.083008	4245.582520
1389.027344	4403.209961
1387.971680	4511.832031
1386.916016	5030.490723
1385.860352	5115.642090
1384.803711	5557.102051
1383.747070	6119.464355
1382.690430	6607.094727
1381.633789	7220.213379
1380.576172	8098.369141
1379.519531	9155.311523
1378.461914	9881.501953
1377.404297	10891.123047
1376.345703	10891.193359
1375.288086	10361.228516
1374.229492	9466.579102
1373.170898	8351.543945
1372.112305	7420.507812
1371.052734	6271.515137
1369.993164	5701.251953
1368.933594	5038.351562
1367.874023	4600.895508
1366.814453	4223.962891
1365.753906	3837.904785
1364.693359	3558.721680
1363.632812	3244.862793
1362.572266	3197.811523
1361.511719	2877.201660
1360.450195	2851.107422
1359.388672	2681.339355
1358.327148	2643.711182
1357.264648	2522.703125
1356.203125	2380.900879
1355.140625	2366.513428
1354.078125	2312.775391
1353.014648	2127.126953
1351.952148	2177.596436
1350.888672	2086.912109
1349.825195	2058.721191
1348.761719	2044.417725
1347.697266	1963.066040
1346.633789	1914.112305
1345.569336	1869.801270
1344.504883	1964.154663
1343.439453	1864.404419
1342.375000	1820.130859
1341.309570	1808.206299
1340.244141	1752.418335
1339.178711	1722.045532
1338.112305	1779.385254
1337.045898	1640.570801
1335.979492	1690.982544
1334.913086	1667.566772
1333.846680	1701.809937
1332.779297	1570.042969
1331.711914	1567.411743
1330.644531	1636.222168
1329.577148	1546.023804
1328.508789	1571.041870
1327.441406	1552.290405
1326.373047	1508.217896
1325.304688	1517.112915
1324.235352	1530.607544
1323.166016	1502.675049
1322.097656	1486.257568
1321.027344	1435.343384
1319.958008	1483.339722
1318.887695	1386.461670
1317.818359	1482.722656
1316.748047	1321.531982
1315.676758	1447.638184
1314.606445	1355.442627
1313.535156	1366.644897
1312.463867	1306.654053
1311.392578	1299.494263
1310.321289	1292.337524
1309.249023	1301.248413
1308.176758	1342.278320
1307.104492	1268.590454
1306.032227	1272.913330
1304.958984	1235.959351
1303.885742	1219.653931
1302.812500	1207.939331
1301.739258	1180.188232
1300.666016	1237.221191
1299.591797	1209.475464
1298.517578	1268.768555
1297.443359	1101.354736
1296.368164	1135.463867
1295.293945	1075.719360
1294.218750	1102.954712
1293.143555	1100.437012
1292.068359	1045.311646
1290.992188	1063.388672
1289.916016	1058.594116
1288.839844	1065.231201
1287.763672	1028.442261
1286.687500	980.243835
1285.610352	1053.142578
1284.533203	970.699097
1283.456055	1043.569336
1282.378906	952.029846
1281.300781	924.440430
1280.222656	933.375916
1279.144531	946.870911
1278.066406	953.516785
1276.987305	937.353149
1275.909180	916.635864
1274.830078	911.885132
1273.750000	941.324890
1272.670898	936.570862
1271.590820	861.191956
1270.510742	904.290527
1269.430664	863.109741
1268.350586	846.991455
1267.269531	876.407593
1266.188477	864.845032
1265.107422	841.910095
1264.026367	809.884827
1262.945312	871.126648
1261.863281	868.670654
1260.781250	859.395081
1259.699219	838.757996
1258.616211	827.219849
1257.533203	865.672791
1256.451172	849.590454
1255.367188	831.243591
1254.284180	828.799194
1253.200195	903.542786
1252.117188	873.847351
1251.033203	832.817993
1249.948242	889.363464
1248.864258	850.616211
1247.779297	868.580994
1246.694336	902.409790
1245.609375	875.018372
1244.523438	793.244507
1243.438477	881.450134
1242.352539	858.611084
1241.265625	835.781555
1240.179688	914.864746
1239.092773	910.145203
1238.006836	907.691162
1236.918945	832.819031
1235.832031	868.846619
1234.745117	848.305420
1233.657227	882.052979
1232.569336	823.077026
1231.480469	843.251282
1230.392578	809.170898
1229.303711	827.079651
1228.214844	817.869202
1227.125977	810.921387
1226.037109	781.392822
1224.947266	778.971252
1223.857422	747.204224
1222.767578	771.874023
1221.677734	697.248840
1220.586914	735.454651
1219.496094	769.133362
1218.405273	787.012573
1217.314453	780.083862
1216.222656	761.887512
1215.131836	784.264099
1214.040039	748.049072
1212.947266	810.967468
1211.855469	758.996460
1210.762695	747.578613
1209.669922	745.170532
1208.577148	751.766602
1207.484375	794.365112
1206.390625	762.700500
1205.296875	764.789917
1204.203125	764.629395
1203.109375	804.940857
1202.014648	775.548401
1200.919922	770.890625
1199.825195	750.505615
1198.730469	730.129089
1197.634766	770.405273
1196.540039	817.401306
1195.444336	743.140198
1194.347656	765.430786
1193.251953	767.514221
1192.155273	751.646973
1191.058594	729.056641
1189.961914	686.290649
1188.865234	751.173462
1187.767578	690.486023
1186.669922	795.685181
1185.572266	728.291138
1184.474609	757.263611
1183.375977	723.505188
1182.277344	712.155701
1181.178711	759.025269
1180.080078	803.636536
1178.980469	751.991943
1177.880859	691.418640
1176.781250	780.758484
1175.681641	709.021179
1174.582031	699.927307
1173.481445	679.658691
1172.380859	744.337952
1171.280273	692.781433
1170.178711	719.447449
1169.078125	723.763733
1167.976562	687.877563
1166.875000	712.294739
1165.772461	669.728699
1164.670898	741.010437
1163.568359	716.308105
1162.465820	725.081360
1161.362305	673.626099
1160.259766	709.165588
1159.156250	655.505615
1158.052734	686.575562
1156.949219	708.717712
1155.844727	672.917236
1154.740234	686.141907
1153.635742	703.815491
1152.531250	710.347656
1151.426758	701.292664
1150.321289	667.757080
1149.215820	692.095642
1148.110352	647.451416
1147.003906	734.068542
1145.898438	676.090332
1144.791992	667.053772
1143.685547	713.597107
1142.578125	680.108032
1141.471680	713.296265
1140.364258	706.480957
1139.256836	650.802734
1138.148438	650.665527
1137.041016	690.492493
1135.932617	692.566650
1134.824219	727.929321
1133.714844	683.399170
1132.606445	663.289795
1131.497070	731.904480
1130.387695	658.575073
1129.278320	693.907410
1128.167969	702.626892
1127.058594	709.126709
1125.948242	624.786011
1124.836914	733.193298
1123.726562	664.385376
1122.615234	735.097900
1121.503906	681.814331
1120.392578	683.883545
1119.281250	732.419617
1118.168945	745.538635
1117.056641	752.016602
1115.944336	714.264832
1114.832031	718.535706
1113.718750	725.015198
1112.605469	733.701782
1111.492188	755.641541
1110.378906	713.510620
1109.264648	784.033264
1108.150391	803.740234
1107.036133	779.286682
1105.921875	785.743347
1104.806641	778.957214
1103.692383	769.967712
1102.577148	787.450867
1101.460938	822.568787
1100.345703	769.479370
1099.229492	806.790466
1098.113281	850.697449
1096.997070	804.245789
1095.879883	852.540527
1094.762695	784.083252
1093.646484	790.523376
1092.528320	823.379333
1091.411133	843.014832
1090.292969	827.432129
1089.174805	807.455627
1088.056641	838.080322
1086.938477	835.703674
1085.819336	817.936707
1084.700195	837.548157
1083.581055	863.744690
1082.460938	867.956482
1081.341797	889.741577
1080.221680	902.731750
1079.101562	852.033386
1077.980469	880.394348
1076.860352	915.328369
1075.739258	849.297424
1074.618164	844.729248
1073.497070	910.359375
1072.375000	888.234741
1071.252930	938.478760
1070.130859	879.089294
1069.008789	911.779602
1067.885742	915.968933
1066.762695	972.736816
1065.639648	950.626709
1064.516602	963.564636
1063.393555	950.223572
1062.269531	945.644104
1061.145508	943.255005
1060.021484	1039.329712
1058.896484	993.169617
1057.771484	1076.070068
1056.646484	1051.788330
1055.521484	1029.703125
1054.396484	1049.156250
1053.270508	1107.936157
1052.144531	1101.146484
1051.018555	1155.521606
1049.891602	1122.517944
1048.764648	1222.717163
1047.637695	1115.492432
1046.510742	1115.255615
1045.383789	1158.659424
1044.255859	1110.418823
1043.127930	1201.789551
1042.000000	1092.502075
1040.872070	1090.089844
1039.743164	1072.420532
1038.614258	1102.702271
1037.485352	1054.534546
1036.355469	1132.730225
1035.226562	1086.754395
1034.096680	1027.733521
1032.966797	1049.284546
1031.835938	999.002502
1030.706055	931.333740
1029.575195	961.593445
1028.444336	924.412476
1027.312500	928.565125
1026.181641	900.103577
1025.049805	867.306641
1023.917969	867.122131
1022.785156	862.592163
1021.653320	825.479309
1020.520508	851.365906
1019.387695	842.499207
1018.253906	822.781616
1017.121094	798.731384
1015.987305	828.941467
1014.853516	755.000610
1013.718750	774.361633
1012.584961	819.737732
1011.450195	771.863770
1010.315430	799.879456
1009.180664	804.043640
1008.044922	788.705017
1006.909180	786.370728
1005.773438	788.369080
1004.637695	766.547302
1003.500977	772.878784
1002.364258	809.510071
1001.227539	750.909485
1000.090820	796.183838
998.954102	763.567993
997.816406	819.633423
996.678711	821.620850
995.540039	782.535156
994.402344	760.755981
993.263672	836.221008
992.125000	766.912598
990.986328	814.265869
989.846680	773.063721
988.707031	798.806091
987.567383	785.684875
986.427734	731.566956
985.287109	774.561951
984.147461	731.254883
983.006836	722.472290
981.865234	735.255188
980.724609	739.409729
979.583008	775.891235
978.441406	747.713318
977.299805	721.701782
976.157227	710.778320
975.014648	751.541443
973.872070	759.992859
972.729492	789.965515
971.585938	768.276428
970.443359	796.082886
969.299805	813.121765
968.155273	757.031067
967.011719	728.916809
965.867188	808.301331
964.722656	754.396729
963.578125	863.825317
962.432617	820.673523
961.287109	829.089783
960.141602	861.124207
958.996094	863.087158
957.849609	841.437439
956.704102	851.987854
955.557617	843.223267
954.410156	845.188171
953.263672	915.782166
952.116211	971.336304
950.968750	928.253174
949.821289	934.484558
948.672852	968.570374
947.524414	1081.910156
946.375977	1094.530396
945.227539	1079.305786
944.078125	1254.638672
942.929688	1232.964478
941.779297	1309.744507
940.629883	1403.608643
939.480469	1538.077148
938.330078	1787.979492
937.179688	1915.893066
936.028320	2278.911621
934.877930	2639.637207
933.726562	3190.392090
932.575195	4099.833496
931.423828	5049.468750
930.271484	6684.201172
929.119141	9163.720703
927.966797	12391.426758
926.814453	16620.802734
925.661133	21945.085938
924.507812	26712.443359
923.354492	32889.660156
922.201172	40318.031250
921.046875	46201.878906
919.892578	41347.273438
918.738281	27453.103516
917.583984	14653.571289
916.428711	8464.787109
915.273438	5741.361816
914.118164	4588.271973
912.962891	3840.124268
911.806641	3432.811523
910.650391	3202.277100
909.494141	2714.437988
908.337891	2328.896484
907.180664	1922.256348
906.023438	1815.547119
904.866211	1751.393188
903.708984	1721.267090
902.550781	1587.050049
901.392578	1455.014648
900.234375	1274.191772
899.075195	1188.990356
897.916992	1042.265869
896.757812	1018.696960
895.597656	988.772583
894.438477	982.196106
893.278320	943.808594
892.118164	907.557983
890.958008	937.043152
889.797852	907.168091
888.636719	879.424927
887.475586	953.388428
886.314453	904.465271
885.152344	874.622681
883.990234	880.786499
882.828125	880.597168
881.666016	802.102356
880.503906	833.668579
879.340820	856.759338
878.177734	835.425110
877.014648	871.192749
875.850586	803.354492
874.686523	877.158936
873.522461	843.159363
872.358398	859.879822
871.193359	789.989807
870.028320	821.497131
868.863281	819.208984
867.698242	745.150879
866.532227	835.740051
865.366211	801.800171
864.200195	864.914001
863.034180	833.091431
861.867188	809.717041
860.700195	853.814575
859.533203	822.014771
858.366211	813.408630
857.198242	842.729004
856.030273	861.504822
854.862305	907.649353
853.694336	882.188293
852.525391	873.578186
851.356445	869.180908
850.187500	925.804321
849.017578	862.495422
847.848633	910.682983
846.678711	950.438782
845.508789	1004.893372
844.337891	979.454773
843.166992	964.533936
841.996094	983.234314
840.825195	1027.132324
839.653320	1003.810547
838.482422	1039.286743
837.310547	1039.062622
836.137695	1026.246460
834.965820	1067.989258
833.792969	1082.443237
832.620117	1023.485107
831.447266	1128.106934
830.273438	974.826233
829.099609	1089.893066
827.925781	1106.421753
826.751953	1043.331665
825.577148	1082.903687
824.402344	1086.858154
823.227539	1092.904541
822.051758	1096.854980
820.876953	1081.968628
819.701172	1090.104370
818.525391	1123.338989
817.348633	1110.547729
816.171875	1122.853638
814.995117	1124.701660
813.818359	1212.241699
812.641602	1128.394897
811.463867	1136.507690
810.286133	1228.165649
809.108398	1188.223145
807.929688	1139.946655
806.750977	1139.700195
805.572266	1147.801514
804.393555	1176.763794
803.213867	1151.477173
802.034180	1195.024902
800.854492	1192.681396
799.674805	1156.984253
798.494141	1165.070801
797.313477	1156.483765
796.132812	1237.482422
794.952148	1239.297485
793.770508	1151.568481
792.588867	1178.384644
791.407227	1190.618652
790.225586	1196.604126
789.042969	1177.619629
787.860352	1237.689087
786.677734	1216.624146
785.494141	1183.092773
784.310547	1153.733398
783.126953	1151.405151
781.943359	1134.532593
780.758789	1236.081909
779.575195	1171.427124
778.389648	1127.565918
777.205078	1094.104004
776.020508	1081.413086
774.834961	1168.337158
773.648438	1178.457642
772.462891	1105.601807
771.276367	1225.645508
770.089844	1161.104370
768.903320	1156.706787
767.716797	1179.253540
766.529297	1239.087402
765.341797	1298.895142
764.154297	1364.890503
762.965820	1389.442871
761.778320	1498.865112
760.589844	1535.796509
759.400391	1630.653809
758.211914	1679.953857
757.022461	1830.586914
755.833008	1844.665771
754.642578	1960.048950
753.453125	1990.630249
752.262695	2021.198120
751.072266	2093.076904
749.880859	2032.715332
748.690430	1922.812134
747.499023	1808.826782
746.306641	1725.857056
745.115234	1651.179199
743.922852	1578.597168
742.730469	1526.677368
741.538086	1363.398071
740.344727	1292.987671
739.152344	1247.348633
737.958984	1222.342285
736.764648	1123.156372
735.571289	1092.006470
734.376953	1023.791077
733.182617	1011.211609
731.987305	963.633728
730.791992	969.600037
729.597656	926.168030
728.401367	856.004761
727.206055	878.448425
726.009766	874.143799
724.813477	886.291870
723.617188	810.030212
722.419922	830.408691
721.223633	803.512817
720.025391	840.320312
718.828125	774.405457
717.630859	798.881042
716.432617	798.707214
715.234375	753.372131
714.035156	761.417480
712.836914	744.836609
711.637695	777.497559
710.437500	736.308350
709.238281	752.552429
708.038086	725.737183
706.837891	768.621948
705.637695	786.897461
704.436523	723.214355
703.236328	784.506409
702.034180	722.899292
700.833008	794.401733
699.630859	761.476929
698.429688	734.706055
697.226562	709.992859
696.024414	697.564270
694.821289	787.400879
693.618164	789.273987
692.415039	735.949951
691.211914	784.842163
690.007812	768.323730
688.803711	774.285095
687.599609	747.563416
686.394531	790.283997
685.189453	734.987549
683.984375	789.939270
682.779297	781.603943
681.573242	767.151367
680.367188	799.621582
679.161133	723.989075
677.955078	780.921936
676.748047	727.750122
675.541016	798.923706
674.333984	741.695801
673.125977	765.980042
671.917969	741.371948
670.709961	763.609314
669.501953	777.693481
668.292969	759.205017
667.083984	791.598511
665.875000	748.700806
664.666016	774.980164
663.456055	787.012573
662.246094	801.072876
661.036133	841.552551
659.825195	812.916565
658.615234	814.770752
657.403320	763.807556
656.192383	781.919250
654.981445	802.053467
653.769531	791.727783
652.557617	826.058289
651.344727	829.936035
650.132812	785.122253
648.919922	847.827759
647.706055	831.419495
646.493164	833.265015
645.279297	859.433289
644.065430	845.059570
642.851562	784.092346
641.636719	822.407837
640.421875	854.630920
639.207031	852.419128
637.992188	815.795044
636.776367	841.926697
635.560547	833.648682
634.344727	867.856750
633.127930	954.635620
631.912109	924.095215
630.695312	913.784607
629.477539	905.499695
628.260742	925.508972
627.042969	927.326538
625.825195	963.481140
624.606445	983.464417
623.388672	1043.818604
622.169922	1035.515747
620.951172	1027.216309
619.731445	1081.468140
618.511719	1085.265503
617.291992	1121.329712
616.072266	1143.263550
614.851562	1191.394409
613.631836	1098.422241
612.410156	1172.736816
611.189453	1186.581543
609.967773	1236.674561
608.746094	1242.444336
607.524414	1310.622070
606.302734	1312.347290
605.080078	1289.923462
603.857422	1269.521118
602.633789	1277.288452
601.411133	1313.206787
600.187500	1329.003296
598.963867	1332.731934
597.739258	1258.079956
596.515625	1229.673950
595.291016	1259.536377
594.065430	1221.100464
592.840820	1212.800415
591.615234	1156.323853
590.389648	1097.864990
589.164062	1147.789429
587.937500	1133.494019
586.710938	1105.164551
585.484375	1135.001221
584.256836	1140.766479
583.030273	1084.391968
581.802734	1164.312866
580.574219	1148.028564
579.346680	1175.819580
578.118164	1149.526489
576.889648	1145.269409
575.660156	1137.010376
574.431641	1254.839355
573.202148	1126.505859
571.972656	1242.284668
570.742188	1220.011230
569.511719	1191.748779
568.281250	1211.477905
567.050781	1195.221802
565.819336	1256.904785
564.587891	1244.641235
563.356445	1306.286133
562.125000	1248.087402
560.892578	1239.826660
559.660156	1353.329102
558.427734	1267.219482
557.194336	1292.877808
555.960938	1372.382812
554.727539	1378.063477
553.494141	1367.790649
552.259766	1417.324951
551.025391	1430.963623
549.791016	1416.700562
548.555664	1472.167480
547.321289	1489.768066
546.085938	1551.167969
544.849609	1449.295776
543.614258	1568.397461
542.377930	1605.860107
541.140625	1581.632324
539.904297	1636.976685
538.666992	1692.296509
537.429688	1705.840454
536.192383	1687.574829
534.954102	1687.202637
533.715820	1784.185791
532.477539	1791.737915
531.239258	1803.258423
530.000000	1888.238281
528.760742	1850.104980
527.521484	1976.714478
526.281250	1930.641357
525.041992	1975.842041
523.801758	1987.306030
522.560547	2002.730591
521.319336	2103.394043
520.079102	2162.390381
518.836914	2110.391602
517.595703	2339.739258
516.353516	2428.354492
515.111328	2390.192871
513.869141	2553.991699
512.625977	2596.974121
511.382812	2776.486084
510.139648	2827.314453
508.895508	2971.090332
507.652344	2994.165527
506.408203	3143.772217
505.163086	3352.615723
503.918945	3338.040283
502.673828	3430.169922
501.428711	3642.761963
500.182617	3639.981445
498.937500	3828.737549
497.691406	4007.539307
496.444336	4042.179932
495.198242	4094.564453
493.951172	4194.273926
492.704102	4232.794434
491.456055	4294.960938
490.208984	4364.985840
488.960938	4255.609375
487.711914	4067.454346
486.463867	4184.768066
485.214844	4118.838379
483.965820	4141.559082
482.715820	4213.492188
481.466797	4129.882812
480.216797	4140.776855
478.965820	4051.317139
477.715820	4113.369629
476.464844	4104.591797
475.213867	4009.299561
473.962891	4222.691406
472.710938	4268.926270
471.458984	4150.080566
470.207031	4164.877441
468.954102	4222.878418
467.701172	4172.850098
466.448242	4295.610352
465.195312	4430.093262
463.941406	4383.976074
462.687500	4506.606934
461.433594	4478.146484
460.179688	4571.285645
458.924805	4542.822754
457.669922	4569.258301
456.414062	4623.118652
455.159180	4663.239258
453.903320	4640.656738
452.647461	4590.665039
451.390625	4808.946777
450.133789	4796.134277
448.876953	4746.140137
447.620117	4727.476562
446.362305	4835.979980
445.104492	4875.979492
443.846680	4970.713379
442.587891	4883.589844
441.330078	4894.232422
440.071289	4953.723633
438.811523	4985.836426
437.552734	5014.027832
436.292969	5030.489746
435.032227	5103.562988
433.772461	5077.053711
432.511719	5173.501953
431.250977	5146.988281
429.990234	5034.656738
428.728516	5115.447266
427.466797	5260.544434
426.205078	5308.109375
424.942383	5260.154785
423.679688	5360.307129
422.416992	5333.790039
421.154297	5326.761230
419.890625	5491.087891
418.626953	5491.813477
417.363281	5597.640137
416.098633	5687.851562
414.834961	5599.040527
413.570312	5714.496582
412.304688	6067.141602
411.039062	6050.237793
409.773438	6035.285156
408.507812	6375.962402
407.242188	6533.857910
405.975586	6635.352539
404.708984	6643.584961
403.441406	6960.522949
402.173828	7257.907715
400.906250	7489.175781
399.638672	7799.891602
398.371094	8283.114258
397.102539	8789.393555
395.833984	9214.009766
394.564453	10024.206055
393.294922	11115.067383
392.025391	12222.879883
390.755859	13585.916016
389.485352	15304.716797
388.215820	17439.072266
386.944336	20195.851562
385.673828	22742.365234
384.402344	25351.599609
383.130859	26647.970703
381.859375	27620.746094
380.586914	26893.279297
379.314453	25141.455078
378.041992	22783.468750
376.768555	21149.287109
375.496094	18507.292969
374.221680	16644.927734
372.948242	14935.957031
371.673828	13579.149414
370.399414	12276.996094
369.125000	11386.495117
367.850586	10372.903320
366.575195	9577.747070
365.299805	8867.803711
364.023438	8360.637695
362.748047	8042.617676
361.471680	7661.137695
360.194336	7175.774414
358.917969	7047.024414
357.640625	6666.020508
356.363281	6323.698242
355.084961	6152.869629
353.806641	6124.548340
352.528320	5961.536621
351.250000	5692.783691
349.970703	5699.205078
348.691406	5444.091309
347.412109	5285.221191
346.132812	5226.374512
344.852539	5175.240723
343.572266	5127.971680
342.291016	5059.594238
341.010742	4964.360352
339.729492	4848.048828
338.447266	4862.320801
337.166016	4866.990234
335.883789	4860.145020
334.601562	4701.756836
333.318359	4666.182617
332.035156	4613.367676
330.751953	4585.496582
329.468750	4496.307129
328.184570	4424.402832
326.901367	4287.395508
325.616211	4562.238281
324.332031	4383.133789
323.046875	4451.071777
321.761719	4402.224609
320.475586	4374.448242
319.190430	4363.902832
317.904297	4357.186523
316.618164	4296.929199
315.331055	4202.284668
314.043945	4256.774902
312.756836	4223.333496
311.468750	4153.605957
310.181641	4234.811035
308.893555	4134.556152
307.604492	3999.978271
306.316406	4308.317871
305.027344	4064.979980
303.737305	4054.528076
302.448242	4143.275391
301.158203	4191.931641
299.868164	4023.199219
298.577148	3991.795654
297.287109	4053.793945
295.996094	3990.004395
294.704102	4078.644775
293.413086	4051.065186
292.121094	4013.976562
290.829102	4054.957764
289.536133	3956.978516
288.243164	3902.809570
286.950195	3974.226318
285.657227	4026.590576
284.363281	4037.095703
283.069336	3979.153809
281.775391	3993.465820
280.480469	3922.257080
279.185547	3966.973145
277.890625	3996.473145
276.595703	4018.363525
275.299805	3867.470215
274.003906	3917.851807
272.708008	3839.163086
271.411133	3866.760010
270.114258	3909.519531
268.817383	3891.572266
267.519531	3939.994385
266.221680	3859.492188
264.923828	3943.907959
263.625977	3874.809082
262.327148	3906.141357
261.028320	3937.459229
259.728516	3813.496094
258.429688	3844.820312
257.129883	3912.090088
255.829102	4109.892090
254.529297	3927.355469
253.228516	3990.777832
251.927734	3991.770264
250.625977	4040.024902
249.325195	4016.434082
248.023438	4100.564453
246.720703	4150.650391
245.418945	4042.053467
244.116211	4135.562012
242.812500	4159.173828
241.509766	4175.224609
240.206055	4138.429199
238.902344	4233.717285
237.597656	4240.308105
236.292969	4203.521973
234.988281	4283.646973
233.683594	4320.380859
232.377930	4357.098145
231.072266	4307.128418
229.766602	4405.993652
228.459961	4433.249512
227.154297	4445.429688
225.846680	4457.604004
224.540039	4625.979492
223.232422	4598.593750
221.924805	4533.596680
220.617188	4547.619629
219.308594	4670.693848
218.000000	4804.991699
216.691406	4903.519043
215.381836	4962.541504
214.072266	5109.831543
212.762695	5097.409180
211.452148	5124.424805
210.142578	5172.078613
208.832031	5337.956055
207.520508	5385.539551
206.208984	5519.400391
204.897461	5574.422852
203.585938	5548.785645
202.273438	5750.010254
200.960938	5769.329590
199.648438	5811.126465
198.335938	6019.648438
197.022461	6068.861816
195.708984	6166.742188
194.394531	6318.873535
193.080078	6459.704590
191.765625	6611.699707
190.451172	6619.559570
189.135742	6863.106934
187.820312	7001.815430
186.504883	7131.112305
185.189453	7150.061523
183.873047	7378.315430
182.555664	7542.938477
181.239258	7905.497070
179.921875	7929.854492
178.604492	8200.668945
177.287109	8435.891602
175.968750	8674.739258
174.650391	8950.796875
173.332031	9211.805664
172.012695	9360.790039
170.693359	9537.676758
169.374023	10020.215820
168.053711	10221.100586
166.733398	10446.118164
165.413086	10754.866211
164.092773	11069.061523
162.771484	11604.705078
161.450195	11985.583984
160.127930	12438.879883
158.806641	12579.346680
157.484375	13201.598633
156.161133	13453.427734
154.838867	14019.411133
153.515625	14205.867188
152.192383	15113.429688
150.868164	15414.766602
149.543945	15888.750977
148.219727	16544.552734
146.894531	17185.197266
145.570312	17745.716797
144.245117	18460.044922
142.918945	19239.001953
141.593750	20012.035156
140.267578	20628.902344
138.940430	21518.103516
137.614258	22184.408203
136.287109	23391.683594
134.958984	24070.228516
133.631836	25411.783203
132.303711	26076.589844
130.975586	27046.675781
129.646484	28084.826172
128.318359	29274.298828
126.988281	30352.185547
125.659180	31431.429688
124.329102	32661.873047
122.999023	33592.140625
121.668945	35148.812500
120.337891	36588.308594
119.006836	38548.351562
117.675781	39507.835938
116.344727	41124.550781
115.012695	42264.011719
113.679688	43408.488281
112.347656	43725.382812
111.014648	43390.597656
109.681641	42404.574219
108.348633	40631.242188
107.014648	38502.734375
105.680664	36172.351562
104.345703	33795.089844
103.011719	31586.638672
101.676758	29237.296875
100.340820	26737.951172
