Pixel,Intensity
0.0,4129.147135416667
1.0,4125.342122395834
2.0,4113.870442708333
3.0,4108.873372395833
4.0,4099.306640625
5.0,4097.077799479167
6.0,4095.1220703125
7.0,4081.3681640625
8.0,4078.5947265625
9.0,4078.837890625
10.0,4083.103515625
11.0,4081.5305989583335
12.0,4075.966796875
13.0,4081.092447916667
14.0,4086.34765625
15.0,4088.751627604167
16.0,4102.866861979167
17.0,4105.058919270834
18.0,4113.162760416667
19.0,4118.573893229167
20.0,4126.199869791666
21.0,4124.290690104167
22.0,4122.21875
23.0,4114.833658854167
24.0,4111.482096354167
25.0,4110.154947916666
26.0,4102.027669270833
27.0,4094.0442708333335
28.0,4085.1901041666665
29.0,4091.706705729167
30.0,4073.885416666667
31.0,4064.15234375
32.0,4063.774739583333
33.0,4056.466145833333
34.0,4051.443033854167
35.0,4053.193684895833
36.0,4044.745442708333
37.0,4042.6458333333335
38.0,4044.7919921875
39.0,4045.744791666667
40.0,4038.667317708333
41.0,4038.642903645833
42.0,4044.6513671875
43.0,4036.822591145833
44.0,4036.2724609375
45.0,4041.1494140625
46.0,4034.703125
47.0,4031.501302083333
48.0,4035.805989583333
49.0,4035.871744791667
50.0,4039.0322265625
51.0,4035.2259114583335
52.0,4030.067708333333
53.0,4030.065755208333
54.0,4040.6494140625
55.0,4030.5651041666665
56.0,4031.325520833333
57.0,4036.1370442708335
58.0,4027.744140625
59.0,4036.266927083333
60.0,4027.333984375
61.0,4028.1204427083335
62.0,4031.130533854167
63.0,4024.5712890625
64.0,4025.619140625
65.0,4025.379231770833
66.0,4029.3076171875
67.0,4057.79296875
68.0,4026.646484375
69.0,4028.2978515625
70.0,4026.2395833333335
71.0,4029.873046875
72.0,4034.5979817708335
73.0,4035.3662109375
74.0,4033.7919921875
75.0,4034.980143229167
76.0,4033.689453125
77.0,4029.666015625
78.0,4030.263020833333
79.0,4026.8037109375
80.0,4029.497395833333
81.0,4030.6608072916665
82.0,4028.748697916667
83.0,4029.1689453125
84.0,4026.8115234375
85.0,4024.478190104167
86.0,4034.058919270833
87.0,4027.467447916667
88.0,4029.420572916667
89.0,4024.209635416667
90.0,4022.0143229166665
91.0,4026.998697916667
92.0,4026.9410807291665
93.0,4025.5029296875
94.0,4020.5791015625
95.0,4024.578776041667
96.0,4019.3330078125
97.0,4019.2454427083335
98.0,4021.204752604167
99.0,4021.2197265625
100.0,4018.774088541667
101.0,4018.049153645833
102.0,4020.177083333333
103.0,4018.337239583333
104.0,4014.145833333333
105.0,4018.08203125
106.0,4014.65625
107.0,4013.1507161458335
108.0,4013.617838541667
109.0,4010.682942708333
110.0,4013.5817057291665
111.0,4011.531575520833
112.0,4016.702473958333
113.0,4012.91015625
114.0,4010.7470703125
115.0,4011.6077473958335
116.0,4013.635416666667
117.0,4009.765625
118.0,4013.987630208333
119.0,4010.6767578125
120.0,4008.5013020833335
121.0,4011.366861979167
122.0,4009.324869791667
123.0,4008.3694661458335
124.0,4006.537760416667
125.0,4009.606770833333
126.0,4005.735026041667
127.0,4013.6630859375
128.0,4013.658528645833
129.0,4003.5950520833335
130.0,4006.589518229167
131.0,4005.0345052083335
132.0,4006.913736979167
133.0,4004.7565104166665
134.0,4002.102864583333
135.0,3999.498046875
136.0,4003.299153645833
137.0,4006.201171875
138.0,4002.801432291667
139.0,4002.790690104167
140.0,4003.303385416667
141.0,4002.879557291667
142.0,3999.21875
143.0,4001.447591145833
144.0,4006.7542317708335
145.0,4001.828125
146.0,4040.320963541667
147.0,3997.537434895833
148.0,4001.033528645833
149.0,4001.92578125
150.0,4011.1370442708335
151.0,3996.6940104166665
152.0,3996.099609375
153.0,3996.7861328125
154.0,3998.263997395833
155.0,3992.3251953125
156.0,3996.1038411458335
157.0,3998.0123697916665
158.0,3995.847330729167
159.0,3996.857747395833
160.0,3997.147135416667
161.0,3999.8203125
162.0,3993.319010416667
163.0,3995.691731770833
164.0,4001.951822916667
165.0,3993.423502604167
166.0,3994.527018229167
167.0,3992.6904296875
168.0,3992.6083984375
169.0,3994.699869791667
170.0,4000.667643229167
171.0,3998.0520833333335
172.0,3995.126953125
173.0,4004.5052083333335
174.0,3991.943684895833
175.0,3991.3186848958335
176.0,3996.1471354166665
177.0,3989.001627604167
178.0,3995.206705729167
179.0,3993.331380208333
180.0,3991.319661458333
181.0,3993.1969401041665
182.0,3989.244140625
183.0,3992.5732421875
184.0,3991.10546875
185.0,3997.703776041667
186.0,3991.794596354167
187.0,3992.918619791667
188.0,3992.198893229167
189.0,3994.953776041667
190.0,3991.9098307291665
191.0,3992.720703125
192.0,3992.144205729167
193.0,3991.74609375
194.0,3991.355794270833
195.0,4000.686197916667
196.0,3989.599609375
197.0,4002.8564453125
198.0,3992.874674479167
199.0,3994.7412109375
200.0,3991.0458984375
201.0,3992.544596354167
202.0,3991.580078125
203.0,3991.226888020833
204.0,3993.75390625
205.0,3993.7415364583335
206.0,3990.908203125
207.0,3991.776041666667
208.0,3992.3141276041665
209.0,3994.3587239583335
210.0,3991.9368489583335
211.0,3991.6552734375
212.0,3997.1005859375
213.0,3989.7177734375
214.0,3997.2164713541665
215.0,3996.6946614583335
216.0,3990.859049479167
217.0,3994.610677083333
218.0,3999.961588541667
219.0,3992.019856770833
220.0,3994.38671875
221.0,3991.2509765625
222.0,3991.890625
223.0,3993.484375
224.0,3996.9964192708335
225.0,4012.534505208333
226.0,3996.9013671875
227.0,3991.1884765625
228.0,3993.6533203125
229.0,3999.821614583333
230.0,3992.3821614583335
231.0,3992.7177734375
232.0,3992.473307291667
233.0,3994.2275390625
234.0,3994.952473958333
235.0,3993.367838541667
236.0,3990.843098958333
237.0,3990.7906901041665
238.0,3997.6826171875
239.0,3990.689453125
240.0,3989.624348958333
241.0,3991.760416666667
242.0,3993.7102864583335
243.0,3989.4169921875
244.0,3990.533203125
245.0,3996.490234375
246.0,3995.756184895833
247.0,3993.0654296875
248.0,3994.669270833333
249.0,3994.012369791667
250.0,3987.6188151041665
251.0,3995.471354166667
252.0,3993.005859375
253.0,3987.3388671875
254.0,3992.825520833333
255.0,3988.9231770833335
256.0,3988.3209635416665
257.0,3987.490559895833
258.0,3989.324869791667
259.0,3986.326497395833
260.0,3990.022786458333
261.0,3990.097005208333
262.0,3988.743815104167
263.0,3988.2470703125
264.0,3988.2457682291665
265.0,3986.1318359375
266.0,3985.9635416666665
267.0,3985.8916015625
268.0,3988.736653645833
269.0,3992.4495442708335
270.0,3989.6253255208335
271.0,3984.028645833333
272.0,3987.1315104166665
273.0,3993.4814453125
274.0,3983.990234375
275.0,3981.108723958333
276.0,3989.2861328125
277.0,3987.019856770833
278.0,4014.9794921875
279.0,3987.097005208333
280.0,3984.2252604166665
281.0,3992.287760416667
282.0,3987.347330729167
283.0,3997.790364583333
284.0,3987.5576171875
285.0,3987.6298828125
286.0,3986.01953125
287.0,3986.082356770833
288.0,3985.4088541666665
289.0,3985.102864583333
290.0,3980.157552083333
291.0,3984.4352213541665
292.0,3985.769205729167
293.0,3981.7333984375
294.0,3980.281575520833
295.0,3980.1197916666665
296.0,3982.923177083333
297.0,3982.8330078125
298.0,3983.050130208333
299.0,3984.060221354167
300.0,3985.468098958333
301.0,3993.380208333333
302.0,3985.584309895833
303.0,3990.911458333333
304.0,3987.591471354167
305.0,3989.8375651041665
306.0,3988.1783854166665
307.0,3987.399739583333
308.0,3985.818033854167
309.0,3984.981119791667
310.0,3984.2854817708335
311.0,3996.313802083333
312.0,3985.802083333333
313.0,3987.6149088541665
314.0,3981.549479166667
315.0,3984.9147135416665
316.0,3985.9225260416665
317.0,3981.013020833333
318.0,3980.156901041667
319.0,3980.2125651041665
320.0,3984.136067708333
321.0,3981.5439453125
322.0,3978.675455729167
323.0,3979.3929036458335
324.0,3980.8610026041665
325.0,3979.6266276041665
326.0,3979.288736979167
327.0,3979.132161458333
328.0,3976.541015625
329.0,3978.074869791667
330.0,3980.750325520833
331.0,3984.0270182291665
332.0,3981.3577473958335
333.0,3973.320638020833
334.0,3974.5517578125
335.0,3978.2233072916665
336.0,3990.2294921875
337.0,3975.636067708333
338.0,3973.187174479167
339.0,3983.069986979167
340.0,3976.6318359375
341.0,3973.875651041667
342.0,3973.455403645833
343.0,3976.5634765625
344.0,3978.331380208333
345.0,3977.197916666667
346.0,3974.8798828125
347.0,3978.266276041667
348.0,3973.362630208333
349.0,3974.4775390625
350.0,3973.7252604166665
351.0,3976.0029296875
352.0,3972.923828125
353.0,3977.244140625
354.0,3972.3004557291665
355.0,3974.078450520833
356.0,3972.6311848958335
357.0,3978.4202473958335
358.0,3975.1572265625
359.0,3977.284830729167
360.0,3973.6510416666665
361.0,3974.549153645833
362.0,3971.89453125
363.0,3973.726236979167
364.0,3973.929361979167
365.0,3976.306640625
366.0,3975.080078125
367.0,3972.037109375
368.0,3969.845703125
369.0,3971.3600260416665
370.0,3971.812174479167
371.0,3971.1728515625
372.0,3971.945638020833
373.0,3971.62890625
374.0,3970.404296875
375.0,3973.3310546875
376.0,3972.9059244791665
377.0,3970.701822916667
378.0,3977.314453125
379.0,3970.707356770833
380.0,3978.969075520833
381.0,3972.061197916667
382.0,3972.786783854167
383.0,3971.860677083333
384.0,3970.0380859375
385.0,4000.774088541667
386.0,3981.7705078125
387.0,3975.3518880208335
388.0,3986.162109375
389.0,3982.5009765625
390.0,3993.0423177083335
391.0,3991.666015625
392.0,3988.848307291667
393.0,3994.806640625
394.0,4000.233072916667
395.0,4002.2307942708335
396.0,3995.587565104167
397.0,3992.595377604167
398.0,3993.8235677083335
399.0,3989.568359375
400.0,3983.490885416667
401.0,3979.135416666667
402.0,3976.9638671875
403.0,3972.5299479166665
404.0,3972.501953125
405.0,3979.332682291667
406.0,3971.61328125
407.0,3970.2093098958335
408.0,3977.55859375
409.0,3974.66796875
410.0,3975.5511067708335
411.0,3970.8076171875
412.0,3974.861002604167
413.0,3975.185546875
414.0,3972.9912109375
415.0,3976.410807291667
416.0,3971.576497395833
417.0,3969.427734375
418.0,3968.694010416667
419.0,3977.288736979167
420.0,3967.950846354167
421.0,3964.259114583333
422.0,3968.043619791667
423.0,3968.2535807291665
424.0,3965.0052083333335
425.0,3964.4036458333335
426.0,3965.0162760416665
427.0,3965.6943359375
428.0,3960.567057291667
429.0,3962.3870442708335
430.0,3962.4765625
431.0,3965.30078125
432.0,3961.38671875
433.0,3964.853841145833
434.0,3968.669270833333
435.0,3954.441731770833
436.0,3964.473958333333
437.0,3959.09765625
438.0,3954.983723958333
439.0,3955.594075520833
440.0,3955.509114583333
441.0,3959.064453125
442.0,3958.5514322916665
443.0,3956.359700520833
444.0,3956.77734375
445.0,3964.822916666667
446.0,3955.2018229166665
447.0,3960.9108072916665
448.0,3957.1025390625
449.0,3956.569986979167
450.0,3952.732096354167
451.0,3958.391276041667
452.0,3958.9925130208335
453.0,3958.8642578125
454.0,3969.0807291666665
455.0,3962.719075520833
456.0,3954.062825520833
457.0,3956.0537109375
458.0,3956.643229166667
459.0,3960.3756510416665
460.0,3954.2578125
461.0,3965.4130859375
462.0,3955.624674479167
463.0,3960.0
464.0,3967.732747395833
465.0,3952.246744791667
466.0,3955.981119791667
467.0,3955.0227864583335
468.0,3955.242838541667
469.0,3954.5546875
470.0,3955.794596354167
471.0,3961.375325520833
472.0,3954.644856770833
473.0,3952.897135416667
474.0,3957.0149739583335
475.0,3956.086588541667
476.0,3967.46484375
477.0,3951.9485677083335
478.0,3956.8714192708335
479.0,3952.617838541667
480.0,3951.1376953125
481.0,3961.2360026041665
482.0,3953.2161458333335
483.0,3948.83203125
484.0,3949.947591145833
485.0,3950.134765625
486.0,3952.500325520833
487.0,3949.391276041667
488.0,3950.513671875
489.0,3948.775716145833
490.0,3951.302408854167
491.0,3950.646809895833
492.0,3951.1126302083335
493.0,3951.8642578125
494.0,3952.873046875
495.0,3948.7132161458335
496.0,3947.849283854167
497.0,3946.7571614583335
498.0,3955.5651041666665
499.0,3948.7272135416665
500.0,3945.421549479167
501.0,3948.680338541667
502.0,3952.923502604167
503.0,3951.071940104167
504.0,3966.533528645833
505.0,3944.927408854167
506.0,3951.029622395833
507.0,3948.724609375
508.0,3948.5729166666665
509.0,3946.857747395833
510.0,3947.729166666667
511.0,3946.137044270833
512.0,3948.1207682291665
513.0,3949.3203125
514.0,3948.0556640625
515.0,3946.127278645833
516.0,3948.007161458333
517.0,3950.5052083333335
518.0,3947.5732421875
519.0,3947.402994791667
520.0,3948.394856770833
521.0,3946.406901041667
522.0,3946.1018880208335
523.0,3956.5234375
524.0,3945.946940104167
525.0,3946.3821614583335
526.0,3946.841471354167
527.0,3946.0481770833335
528.0,3952.058268229167
529.0,3943.752604166667
530.0,3942.0807291666665
531.0,3942.8704427083335
532.0,3952.690755208333
533.0,3949.1298828125
534.0,3947.522135416667
535.0,3945.435546875
536.0,3949.7535807291665
537.0,3949.203776041667
538.0,3944.888997395833
539.0,3951.541015625
540.0,3963.296223958333
541.0,3944.369140625
542.0,3945.138671875
543.0,3946.897786458333
544.0,3945.2080078125
545.0,3944.5432942708335
546.0,3943.924153645833
547.0,3941.1158854166665
548.0,3943.3248697916665
549.0,3942.345703125
550.0,3940.418619791667
551.0,3946.4052734375
552.0,3946.980794270833
553.0,3942.058919270833
554.0,3944.441080729167
555.0,3946.1953125
556.0,3944.202473958333
557.0,3944.1259765625
558.0,3940.673502604167
559.0,3944.167317708333
560.0,3949.964518229167
561.0,3946.0325520833335
562.0,3945.080403645833
563.0,3948.3388671875
564.0,3948.1569010416665
565.0,3941.969075520833
566.0,3946.13671875
567.0,3953.8046875
568.0,3941.4514973958335
569.0,3944.427083333333
570.0,3942.0615234375
571.0,3944.278645833333
572.0,3944.149088541667
573.0,3946.0807291666665
574.0,3947.483072916667
575.0,3942.76953125
576.0,3961.141927083333
577.0,3945.424479166667
578.0,3942.1796875
579.0,3945.516927083333
580.0,3940.1455078125
581.0,3942.3916015625
582.0,3942.3352864583335
583.0,3941.014322916667
584.0,3942.96875
585.0,3944.578125
586.0,3940.237630208333
587.0,3940.453450520833
588.0,3948.891276041667
589.0,3940.117838541667
590.0,3940.100911458333
591.0,3945.8173828125
592.0,3940.9583333333335
593.0,3946.408203125
594.0,3943.8177083333335
595.0,3950.6875
596.0,3945.2509765625
597.0,3944.603515625
598.0,3944.597981770833
599.0,3944.333984375
600.0,3952.3463541666665
601.0,3956.75390625
602.0,3950.698567708333
603.0,3949.576497395833
604.0,3953.657877604167
605.0,3957.299479166667
606.0,3958.47265625
607.0,3965.379557291667
608.0,3968.2978515625
609.0,3967.01953125
610.0,3979.1155598958335
611.0,3978.0146484375
612.0,3976.297200520833
613.0,3974.942057291667
614.0,3980.777994791667
615.0,3981.8352864583335
616.0,3979.83203125
617.0,3974.5732421875
618.0,3968.686848958333
619.0,3974.619791666667
620.0,3962.1533203125
621.0,3959.217122395833
622.0,3957.8291015625
623.0,3960.28125
624.0,3948.233072916667
625.0,3950.235026041667
626.0,3950.239908854167
627.0,3949.4791666666665
628.0,3946.8714192708335
629.0,3943.850260416667
630.0,3944.6487630208335
631.0,3945.423502604167
632.0,3946.099609375
633.0,3942.041015625
634.0,3943.165364583333
635.0,3948.489908854167
636.0,3938.869140625
637.0,3940.5634765625
638.0,3945.044921875
639.0,3941.19921875
640.0,3940.211588541667
641.0,3938.1966145833335
642.0,3936.6806640625
643.0,3940.670572916667
644.0,3937.767252604167
645.0,3937.591471354167
646.0,3938.8470052083335
647.0,3937.6119791666665
648.0,3937.6474609375
649.0,3939.008463541667
650.0,3937.2330729166665
651.0,3937.674153645833
652.0,3939.534505208333
653.0,3938.9889322916665
654.0,3939.3958333333335
655.0,3935.9072265625
656.0,3940.326822916667
657.0,3941.4368489583335
658.0,3938.4951171875
659.0,3938.772786458333
660.0,3936.140625
661.0,3940.6256510416665
662.0,3940.6884765625
663.0,3942.2454427083335
664.0,3941.49609375
665.0,3936.3154296875
666.0,3940.0849609375
667.0,3938.3017578125
668.0,3937.9462890625
669.0,3936.638346354167
670.0,3935.008138020833
671.0,3935.9921875
672.0,3955.218098958333
673.0,3937.16796875
674.0,3934.6298828125
675.0,3941.4925130208335
676.0,3934.866536458333
677.0,3937.006510416667
678.0,3934.8427734375
679.0,3932.7516276041665
680.0,3936.819986979167
681.0,3935.183268229167
682.0,3935.9508463541665
683.0,3936.830729166667
684.0,3938.224934895833
685.0,3932.7307942708335
686.0,3937.826497395833
687.0,3936.534505208333
688.0,3933.407552083333
689.0,3935.531901041667
690.0,3941.927734375
691.0,3935.562174479167
692.0,3935.1126302083335
693.0,3933.9814453125
694.0,3937.021158854167
695.0,3940.874348958333
696.0,3933.9111328125
697.0,3941.0179036458335
698.0,3933.780598958333
699.0,3933.2932942708335
700.0,3937.980143229167
701.0,3933.308919270833
702.0,3939.249348958333
703.0,3933.0625
704.0,3933.9202473958335
705.0,3942.535807291667
706.0,3938.1139322916665
707.0,3937.1787109375
708.0,3934.5856119791665
709.0,3933.3154296875
710.0,3932.15234375
711.0,3930.961263020833
712.0,3938.8968098958335
713.0,3933.27734375
714.0,3932.4912109375
715.0,3933.9586588541665
716.0,3939.300130208333
717.0,3937.150065104167
718.0,3934.571614583333
719.0,3937.05859375
720.0,3934.079752604167
721.0,3931.6520182291665
722.0,3938.0771484375
723.0,3936.188802083333
724.0,3938.541015625
725.0,3934.7317708333335
726.0,3935.9931640625
727.0,3933.251627604167
728.0,3935.427734375
729.0,3935.119466145833
730.0,3937.9326171875
731.0,3932.767578125
732.0,3932.629231770833
733.0,3935.4957682291665
734.0,3934.711588541667
735.0,3934.163411458333
736.0,3938.888671875
737.0,3941.2194010416665
738.0,3934.72265625
739.0,3933.197265625
740.0,3936.7145182291665
741.0,3932.9612630208335
742.0,3933.639973958333
743.0,3931.227864583333
744.0,3932.827473958333
745.0,3943.361328125
746.0,3938.5205078125
747.0,3932.538736979167
748.0,3933.587890625
749.0,3937.5611979166665
750.0,3934.46484375
751.0,3937.3157552083335
752.0,3933.040364583333
753.0,3936.757161458333
754.0,3933.658203125
755.0,3936.9697265625
756.0,3934.1162109375
757.0,3933.201171875
758.0,3933.477864583333
759.0,3932.016276041667
760.0,3936.183919270833
761.0,3934.9231770833335
762.0,3937.0699869791665
763.0,3942.962239583333
764.0,3937.696940104167
765.0,3943.391276041667
766.0,3936.7145182291665
767.0,3940.2796223958335
768.0,3936.304361979167
769.0,3936.019856770833
770.0,3938.678385416667
771.0,3940.2239583333335
772.0,3933.440755208333
773.0,3936.492513020833
774.0,3939.318359375
775.0,3936.5406901041665
776.0,3936.48828125
777.0,3937.6865234375
778.0,3936.8837890625
779.0,3934.142252604167
780.0,3944.0712890625
781.0,3935.8515625
782.0,3938.71875
783.0,3946.0279947916665
784.0,3939.146158854167
785.0,3937.8115234375
786.0,3936.6350911458335
787.0,3946.710286458333
788.0,3935.3876953125
789.0,3937.8502604166665
790.0,3945.8125
791.0,3936.13671875
792.0,3939.515950520833
793.0,3933.556315104167
794.0,3934.460611979167
795.0,3945.760091145833
796.0,3977.094075520833
797.0,3933.844075520833
798.0,3937.878580729167
799.0,3936.728841145833
800.0,3939.118489583333
801.0,3935.709635416667
802.0,3936.298177083333
803.0,3939.290364583333
804.0,3937.018229166667
805.0,3938.1669921875
806.0,3961.457682291667
807.0,3936.12109375
808.0,3934.307942708333
809.0,3932.412760416667
810.0,3937.318359375
811.0,3943.1920572916665
812.0,3943.8831380208335
813.0,3934.60546875
814.0,3935.1848958333335
815.0,3934.366861979167
816.0,3941.3828125
817.0,3945.1259765625
818.0,3939.6748046875
819.0,3936.443359375
820.0,3933.0849609375
821.0,3936.4762369791665
822.0,3937.4563802083335
823.0,3939.5475260416665
824.0,3939.579752604167
825.0,3935.48828125
826.0,3937.393229166667
827.0,3934.023763020833
828.0,3936.305013020833
829.0,3936.80078125
830.0,3933.3440755208335
831.0,3937.518880208333
832.0,3936.7262369791665
833.0,3934.5234375
834.0,3939.9541015625
835.0,3936.119140625
836.0,3935.3440755208335
837.0,3934.4163411458335
838.0,3936.238932291667
839.0,3931.6416015625
840.0,3937.256184895833
841.0,3937.871744791667
842.0,3933.2255859375
843.0,3939.248046875
844.0,3932.392578125
845.0,3938.720377604167
846.0,3936.850260416667
847.0,3935.013671875
848.0,3938.497395833333
849.0,3931.748697916667
850.0,3937.161783854167
851.0,3932.7919921875
852.0,3935.5654296875
853.0,3935.721354166667
854.0,3941.926432291667
855.0,3933.0439453125
856.0,3937.275716145833
857.0,3935.740234375
858.0,3936.9322916666665
859.0,3935.557942708333
860.0,3936.253255208333
861.0,3938.865885416667
862.0,3932.6796875
863.0,3941.821940104167
864.0,3934.641927083333
865.0,3933.522135416667
866.0,3939.587890625
867.0,3936.241861979167
868.0,3945.6884765625
869.0,3932.65234375
870.0,3934.82421875
871.0,3934.331705729167
872.0,3951.446614583333
873.0,3939.4684244791665
874.0,3939.532552083333
875.0,3932.3072916666665
876.0,3933.5517578125
877.0,3932.0406901041665
878.0,3933.915364583333
879.0,3938.0885416666665
880.0,3939.565104166667
881.0,3933.246744791667
882.0,3937.8544921875
883.0,3933.8235677083335
884.0,3936.215169270833
885.0,3935.1380208333335
886.0,3935.9905598958335
887.0,3935.623046875
888.0,3936.098307291667
889.0,3932.4615885416665
890.0,3942.3248697916665
891.0,3938.5227864583335
892.0,3933.593424479167
893.0,3943.876953125
894.0,3948.076171875
895.0,3933.830078125
896.0,3935.779296875
897.0,3938.3896484375
898.0,3932.988932291667
899.0,3934.0052083333335
900.0,3935.849609375
901.0,3935.674153645833
902.0,3937.283528645833
903.0,3934.9091796875
904.0,3935.4593098958335
905.0,3935.1708984375
906.0,3935.372395833333
907.0,3948.830078125
908.0,3933.2796223958335
909.0,3933.51953125
910.0,3938.882486979167
911.0,3935.10546875
912.0,3934.005859375
913.0,3932.6878255208335
914.0,3933.232747395833
915.0,3935.8821614583335
916.0,3937.7444661458335
917.0,3933.208333333333
918.0,3935.198567708333
919.0,3939.251627604167
920.0,3934.6376953125
921.0,3936.6158854166665
922.0,3934.414713541667
923.0,3934.566731770833
924.0,3930.082356770833
925.0,3936.8297526041665
926.0,3937.35546875
927.0,3932.625325520833
928.0,3935.5830078125
929.0,3934.9544270833335
930.0,3928.132161458333
931.0,3938.373697916667
932.0,3935.223958333333
933.0,3933.4827473958335
934.0,3951.914388020833
935.0,3936.6292317708335
936.0,3929.237630208333
937.0,3936.4990234375
938.0,3931.264322916667
939.0,3934.7763671875
940.0,3935.931315104167
941.0,3935.4202473958335
942.0,3931.661783854167
943.0,3937.26171875
944.0,3938.854817708333
945.0,3931.7281901041665
946.0,3934.303059895833
947.0,3933.558919270833
948.0,3935.219075520833
949.0,3933.563802083333
950.0,3931.032552083333
951.0,3938.165690104167
952.0,3936.928385416667
953.0,3934.169921875
954.0,3933.2867838541665
955.0,3936.0537109375
956.0,3928.9716796875
957.0,3933.2727864583335
958.0,3938.760091145833
959.0,3937.2373046875
960.0,3942.034830729167
961.0,3928.786458333333
962.0,3932.718098958333
963.0,3932.7958984375
964.0,3935.8180338541665
965.0,3934.675130208333
966.0,3930.6083984375
967.0,3937.347981770833
968.0,3934.1507161458335
969.0,3933.935872395833
970.0,3930.2203776041665
971.0,3938.3203125
972.0,3937.1337890625
973.0,3935.908203125
974.0,3935.1748046875
975.0,3932.817057291667
976.0,3933.3577473958335
977.0,3932.502278645833
978.0,3935.761393229167
979.0,3933.362955729167
980.0,3933.401692708333
981.0,3930.873046875
982.0,3933.2861328125
983.0,3935.8118489583335
984.0,3935.4889322916665
985.0,3931.761393229167
986.0,3934.1585286458335
987.0,3937.583984375
988.0,3936.4716796875
989.0,3932.2327473958335
990.0,3935.299479166667
991.0,3929.564778645833
992.0,3935.9833984375
993.0,3934.2428385416665
994.0,3931.343424479167
995.0,3939.27734375
996.0,3932.6256510416665
997.0,3932.7063802083335
998.0,3930.0325520833335
999.0,3933.540690104167
1000.0,3940.194010416667
1001.0,3934.303059895833
1002.0,3934.6787109375
1003.0,3935.709635416667
1004.0,3938.2138671875
1005.0,3932.796875
1006.0,3931.110677083333
1007.0,3930.533528645833
1008.0,3939.0224609375
1009.0,3939.973307291667
1010.0,3934.246419270833
1011.0,3931.0901692708335
1012.0,3936.949869791667
1013.0,3932.19140625
1014.0,3930.509440104167
1015.0,3939.9052734375
1016.0,3932.19140625
1017.0,3932.765299479167
1018.0,3938.71875
1019.0,3932.5673828125
1020.0,3942.755859375
1021.0,3934.391927083333
1022.0,3937.0481770833335
1023.0,3933.2705078125
1024.0,3936.267252604167
1025.0,3935.417643229167
1026.0,3932.217122395833
1027.0,3935.1865234375
1028.0,3937.970052083333
1029.0,3934.46484375
1030.0,3928.322265625
1031.0,3936.1647135416665
1032.0,3933.2190755208335
1033.0,3937.70703125
1034.0,3933.517252604167
1035.0,3941.9560546875
1036.0,3933.9244791666665
1037.0,3934.364908854167
1038.0,3932.430338541667
1039.0,3933.807291666667
1040.0,3934.3401692708335
1041.0,3937.5065104166665
1042.0,3934.483072916667
1043.0,3944.886393229167
1044.0,3935.623372395833
1045.0,3934.0042317708335
1046.0,3937.134114583333
1047.0,3943.8238932291665
1048.0,3932.357421875
1049.0,3934.517903645833
1050.0,3931.8271484375
1051.0,3932.421875
1052.0,3933.253580729167
1053.0,3933.3515625
1054.0,3935.5149739583335
1055.0,3936.2392578125
1056.0,3929.705078125
1057.0,3932.3948567708335
1058.0,3936.7431640625
1059.0,3932.363932291667
1060.0,3934.908528645833
1061.0,3935.363606770833
1062.0,3931.779296875
1063.0,3935.944661458333
1064.0,3946.103190104167
1065.0,3932.046875
1066.0,3936.6357421875
1067.0,3933.878255208333
1068.0,3932.6044921875
1069.0,3934.731119791667
1070.0,3935.964192708333
1071.0,3935.781901041667
1072.0,3934.483072916667
1073.0,3933.7819010416665
1074.0,3937.3922526041665
1075.0,3935.9332682291665
1076.0,3935.76171875
1077.0,3934.583984375
1078.0,3939.094075520833
1079.0,3932.9544270833335
1080.0,3937.0947265625
1081.0,3937.152994791667
1082.0,3937.1044921875
1083.0,3932.2887369791665
1084.0,3935.659830729167
1085.0,3935.5341796875
1086.0,3933.7555338541665
1087.0,3936.802734375
1088.0,3938.794921875
1089.0,3938.6630859375
1090.0,3942.655598958333
1091.0,3933.4208984375
1092.0,3936.121744791667
1093.0,3933.8014322916665
1094.0,3939.1077473958335
1095.0,3935.3427734375
1096.0,3932.38671875
1097.0,3935.276041666667
1098.0,3933.3264973958335
1099.0,3939.427734375
1100.0,3930.393880208333
1101.0,3940.558268229167
1102.0,3936.328450520833
1103.0,3937.955729166667
1104.0,3936.744466145833
1105.0,3935.1201171875
1106.0,3938.131184895833
1107.0,3937.527994791667
1108.0,3931.495768229167
1109.0,3935.655598958333
1110.0,3936.4928385416665
1111.0,3939.162109375
1112.0,3940.2060546875
1113.0,3934.819661458333
1114.0,3935.9547526041665
1115.0,3941.1165364583335
1116.0,3943.531575520833
1117.0,3947.805338541667
1118.0,3936.630208333333
1119.0,3939.4755859375
1120.0,3936.447265625
1121.0,3943.5374348958335
1122.0,3976.0771484375
1123.0,3934.446940104167
1124.0,3940.4938151041665
1125.0,3936.6220703125
1126.0,3937.183919270833
1127.0,3933.229166666667
1128.0,3939.2705078125
1129.0,3944.5732421875
1130.0,3935.701171875
1131.0,3939.248046875
1132.0,3944.333658854167
1133.0,3939.740885416667
1134.0,3937.157552083333
1135.0,3935.0296223958335
1136.0,3940.1640625
1137.0,3938.650390625
1138.0,3937.980143229167
1139.0,3939.734700520833
1140.0,3942.3037109375
1141.0,3938.48828125
1142.0,3939.046223958333
1143.0,3938.957682291667
1144.0,3940.1207682291665
1145.0,3934.0517578125
1146.0,3937.834309895833
1147.0,3940.903971354167
1148.0,3938.9029947916665
1149.0,3941.402994791667
1150.0,3941.575520833333
1151.0,3938.425455729167
1152.0,3939.725260416667
1153.0,3937.477213541667
1154.0,3935.159505208333
1155.0,3937.8017578125
1156.0,3937.952799479167
1157.0,3938.9873046875
1158.0,3937.694986979167
1159.0,3938.130859375
1160.0,3938.078450520833
1161.0,3955.654296875
1162.0,3939.017903645833
1163.0,3935.2141927083335
1164.0,3939.039713541667
1165.0,3937.59765625
1166.0,3938.84765625
1167.0,3936.933268229167
1168.0,3938.934244791667
1169.0,3936.0244140625
1170.0,3933.6337890625
1171.0,3937.238606770833
1172.0,3935.981119791667
1173.0,3939.410481770833
1174.0,3936.1962890625
1175.0,3937.1253255208335
1176.0,3932.223958333333
1177.0,3943.2867838541665
1178.0,3938.7669270833335
1179.0,3937.155924479167
1180.0,3940.9189453125
1181.0,3937.449544270833
1182.0,3940.798828125
1183.0,3938.275390625
1184.0,3939.153645833333
1185.0,3941.447591145833
1186.0,3941.788736979167
1187.0,3941.1881510416665
1188.0,3940.708984375
1189.0,3936.0703125
1190.0,3938.142903645833
1191.0,3939.8059895833335
1192.0,3939.615559895833
1193.0,3939.425455729167
1194.0,3940.810872395833
1195.0,3941.1253255208335
1196.0,3940.171223958333
1197.0,3938.323567708333
1198.0,3944.09375
1199.0,3940.484375
1200.0,3943.072916666667
1201.0,3946.4593098958335
1202.0,3938.470377604167
1203.0,3938.5647786458335
1204.0,3946.612630208333
1205.0,3945.074544270833
1206.0,3941.3203125
1207.0,3948.2080078125
1208.0,3940.5439453125
1209.0,3937.2802734375
1210.0,3946.120768229167
1211.0,3939.015950520833
1212.0,3940.3935546875
1213.0,3947.643229166667
1214.0,3940.616861979167
1215.0,3940.561848958333
1216.0,3950.2408854166665
1217.0,3938.6539713541665
1218.0,3939.7998046875
1219.0,3941.4833984375
1220.0,3942.5345052083335
1221.0,3950.220703125
1222.0,3949.548502604167
1223.0,3938.92578125
1224.0,3940.0205078125
1225.0,3940.8681640625
1226.0,3941.048828125
1227.0,3941.944010416667
1228.0,3938.268880208333
1229.0,3940.969401041667
1230.0,3952.1246744791665
1231.0,3946.7327473958335
1232.0,3944.99609375
1233.0,3938.7786458333335
1234.0,3942.359375
1235.0,3944.835611979167
1236.0,3946.815755208333
1237.0,3940.6337890625
1238.0,3947.9261067708335
1239.0,3944.1142578125
1240.0,3942.845377604167
1241.0,3941.25390625
1242.0,3945.6067708333335
1243.0,3941.5517578125
1244.0,3949.128580729167
1245.0,3944.7939453125
1246.0,3942.6399739583335
1247.0,3942.6126302083335
1248.0,3945.900065104167
1249.0,3955.431640625
1250.0,3944.143229166667
1251.0,3951.6481119791665
1252.0,3945.864583333333
1253.0,3942.388346354167
1254.0,3953.673177083333
1255.0,3955.931640625
1256.0,3944.1188151041665
1257.0,3945.83203125
1258.0,3952.6236979166665
1259.0,3944.1904296875
1260.0,3950.6350911458335
1261.0,3944.723958333333
1262.0,3945.689453125
1263.0,3947.443359375
1264.0,3946.515625
1265.0,3942.868815104167
1266.0,3945.1126302083335
1267.0,3944.0703125
1268.0,3944.7906901041665
1269.0,3951.620442708333
1270.0,3948.5810546875
1271.0,3947.03125
1272.0,3949.866861979167
1273.0,3947.458333333333
1274.0,3946.2467447916665
1275.0,3947.1764322916665
1276.0,3946.527018229167
1277.0,3946.9970703125
1278.0,3947.6220703125
1279.0,3948.146484375
1280.0,3949.5735677083335
1281.0,3948.773111979167
1282.0,3945.610026041667
1283.0,3947.791015625
1284.0,3942.710611979167
1285.0,3945.499674479167
1286.0,3949.7711588541665
1287.0,3948.379557291667
1288.0,3952.5341796875
1289.0,3947.042643229167
1290.0,3951.116536458333
1291.0,3945.7766927083335
1292.0,3949.449869791667
1293.0,3957.103841145833
1294.0,3952.823567708333
1295.0,3954.049153645833
1296.0,3952.575846354167
1297.0,3949.92578125
1298.0,3954.1070963541665
1299.0,3956.6282552083335
1300.0,3952.65625
1301.0,3948.4378255208335
1302.0,3950.330729166667
1303.0,3948.0068359375
1304.0,3951.3606770833335
1305.0,3953.549153645833
1306.0,3956.51171875
1307.0,3948.265950520833
1308.0,3953.0234375
1309.0,3952.5361328125
1310.0,3952.764973958333
1311.0,3956.829752604167
1312.0,3983.530924479167
1313.0,3953.870442708333
1314.0,3954.3997395833335
1315.0,3951.854166666667
1316.0,3952.842122395833
1317.0,3952.9495442708335
1318.0,3953.75
1319.0,3953.870442708333
1320.0,3953.380859375
1321.0,3955.078125
1322.0,3953.4420572916665
1323.0,3959.742513020833
1324.0,3954.3916015625
1325.0,3957.644205729167
1326.0,3957.4768880208335
1327.0,3958.161783854167
1328.0,3953.8352864583335
1329.0,3962.5556640625
1330.0,3960.718424479167
1331.0,3958.735026041667
1332.0,3967.449869791667
1333.0,3958.345377604167
1334.0,3956.669270833333
1335.0,3955.736653645833
1336.0,3956.3125
1337.0,3956.781575520833
1338.0,3960.948567708333
1339.0,3970.490885416667
1340.0,3964.046549479167
1341.0,3958.8590494791665
1342.0,3956.826497395833
1343.0,3961.070963541667
1344.0,3965.604166666667
1345.0,3959.1969401041665
1346.0,3959.3209635416665
1347.0,3963.410481770833
1348.0,3962.1705729166665
1349.0,3957.605794270833
1350.0,3963.888020833333
1351.0,3968.3935546875
1352.0,3971.3896484375
1353.0,3960.6331380208335
1354.0,3963.6328125
1355.0,3965.687174479167
1356.0,3966.08203125
1357.0,3962.3916015625
1358.0,3969.991861979167
1359.0,3963.478841145833
1360.0,3966.6848958333335
1361.0,3962.754231770833
1362.0,3961.7991536458335
1363.0,3969.565755208333
1364.0,3967.374674479167
1365.0,3968.250325520833
1366.0,3971.0481770833335
1367.0,3964.6669921875
1368.0,3964.5517578125
1369.0,3965.230794270833
1370.0,3967.489908854167
1371.0,3970.6145833333335
1372.0,3967.7294921875
1373.0,3970.621744791667
1374.0,3966.825846354167
1375.0,3967.5390625
1376.0,3970.8854166666665
1377.0,3968.80859375
1378.0,3968.991536458333
1379.0,3966.3186848958335
1380.0,3973.4674479166665
1381.0,3969.80859375
1382.0,3968.4137369791665
1383.0,3970.6552734375
1384.0,3971.466145833333
1385.0,3969.184895833333
1386.0,3971.657552083333
1387.0,3973.768229166667
1388.0,3969.2724609375
1389.0,3970.3522135416665
1390.0,3975.107747395833
1391.0,3970.133138020833
1392.0,3972.680013020833
1393.0,3974.078450520833
1394.0,3970.3701171875
1395.0,3973.716796875
1396.0,3975.3873697916665
1397.0,3976.909830729167
1398.0,3974.8271484375
1399.0,3980.5201822916665
1400.0,3974.2532552083335
1401.0,3978.8212890625
1402.0,3977.1240234375
1403.0,3978.266276041667
1404.0,3984.0029296875
1405.0,3977.141927083333
1406.0,3976.091796875
1407.0,3976.6259765625
1408.0,3976.427408854167
1409.0,3978.8922526041665
1410.0,3979.925455729167
1411.0,3981.659505208333
1412.0,3981.6240234375
1413.0,3979.7805989583335
1414.0,3985.162760416667
1415.0,3984.797526041667
1416.0,3980.1142578125
1417.0,3982.3046875
1418.0,3985.347330729167
1419.0,3984.414388020833
1420.0,3984.710611979167
1421.0,3988.318359375
1422.0,3981.3121744791665
1423.0,3981.619466145833
1424.0,3983.300130208333
1425.0,3984.926432291667
1426.0,3984.789713541667
1427.0,3985.825520833333
1428.0,3982.4235026041665
1429.0,3984.846354166667
1430.0,4007.265299479167
1431.0,3987.4876302083335
1432.0,3990.552408854167
1433.0,3989.8668619791665
1434.0,3993.908203125
1435.0,3995.151041666667
1436.0,3990.462239583333
1437.0,3992.909505208333
1438.0,3996.6943359375
1439.0,3990.550130208333
1440.0,3992.0374348958335
1441.0,3990.24609375
1442.0,3991.0078125
1443.0,3994.0084635416665
1444.0,3991.3427734375
1445.0,3995.6201171875
1446.0,3995.775390625
1447.0,3999.1103515625
1448.0,4008.46875
1449.0,3993.81640625
1450.0,3998.312174479167
1451.0,3995.97265625
1452.0,3995.0615234375
1453.0,3999.953125
1454.0,3998.042643229167
1455.0,3999.6201171875
1456.0,3998.699869791667
1457.0,3996.071940104167
1458.0,3995.9638671875
1459.0,3998.744466145833
1460.0,3996.9677734375
1461.0,4002.1181640625
1462.0,4001.3385416666665
1463.0,4006.952473958333
1464.0,4003.846028645833
1465.0,4004.1790364583335
1466.0,4003.453125
1467.0,4002.159830729167
1468.0,4004.304361979167
1469.0,4003.919596354167
1470.0,4004.152994791667
1471.0,4005.6604817708335
1472.0,4008.858723958333
1473.0,4009.605794270833
1474.0,4002.8486328125
1475.0,4009.677408854167
1476.0,4009.4661458333335
1477.0,4006.7356770833335
1478.0,4008.8203125
1479.0,4010.367838541667
1480.0,4013.129557291667
1481.0,4012.6321614583335
1482.0,4009.209309895833
1483.0,4017.977213541667
1484.0,4011.272786458333
1485.0,4014.392252604167
1486.0,4014.2757161458335
1487.0,4014.277994791667
1488.0,4012.637044270833
1489.0,4022.2119140625
1490.0,4014.5709635416665
1491.0,4016.517578125
1492.0,4023.0113932291665
1493.0,4017.728515625
1494.0,4018.332356770833
1495.0,4020.373046875
1496.0,4020.54296875
1497.0,4022.6484375
1498.0,4021.994140625
1499.0,4026.14453125
1500.0,4017.69921875
1501.0,4021.661783854167
1502.0,4024.227213541667
1503.0,4023.674479166667
1504.0,4028.09765625
1505.0,4031.036458333333
1506.0,4022.888346354167
1507.0,4027.759114583333
1508.0,4024.512369791667
1509.0,4025.418294270833
1510.0,4033.263671875
1511.0,4030.632486979167
1512.0,4034.394856770833
1513.0,4029.474609375
1514.0,4030.471354166667
1515.0,4034.145182291667
1516.0,4032.4602864583335
1517.0,4030.576497395833
1518.0,4031.025390625
1519.0,4032.9609375
1520.0,4037.109375
1521.0,4033.1845703125
1522.0,4038.346354166667
1523.0,4038.645182291667
1524.0,4039.087239583333
1525.0,4036.2864583333335
1526.0,4053.299153645833
1527.0,4039.726888020833
1528.0,4040.690104166667
1529.0,4043.7057291666665
1530.0,4042.6774088541665
1531.0,4042.139973958333
1532.0,4044.089518229167
1533.0,4045.937825520833
1534.0,4043.967122395833
1535.0,4045.130208333333
1536.0,4042.2613932291665
1537.0,4049.193684895833
1538.0,4048.7216796875
1539.0,4047.40625
1540.0,4048.9384765625
1541.0,4053.383463541667
1542.0,4047.892903645833
1543.0,4053.204752604167
1544.0,4049.4921875
1545.0,4064.3098958333335
1546.0,4059.623046875
1547.0,4051.4150390625
1548.0,4057.31640625
1549.0,4060.302083333333
1550.0,4055.621419270833
1551.0,4057.8815104166665
1552.0,4053.544921875
1553.0,4060.2724609375
1554.0,4074.702799479167
1555.0,4061.2210286458335
1556.0,4061.2275390625
1557.0,4062.343424479167
1558.0,4064.919921875
1559.0,4063.462239583333
1560.0,4066.634440104167
1561.0,4067.013020833333
1562.0,4068.8642578125
1563.0,4067.120442708333
1564.0,4073.442057291667
1565.0,4069.0149739583335
1566.0,4068.2294921875
1567.0,4070.998372395833
1568.0,4070.130208333333
1569.0,4073.8212890625
1570.0,4084.970703125
1571.0,4071.952799479167
1572.0,4078.5009765625
1573.0,4081.7281901041665
1574.0,4076.413736979167
1575.0,4080.6087239583335
1576.0,4078.783203125
1577.0,4079.609375
1578.0,4080.854817708333
1579.0,4080.872721354167
1580.0,4083.201171875
1581.0,4081.021158854167
1582.0,4084.8798828125
1583.0,4083.9384765625
1584.0,4089.4986979166665
1585.0,4086.474609375
1586.0,4087.017252604167
1587.0,4086.1048177083335
1588.0,4089.687825520833
1589.0,4094.0973307291665
1590.0,4091.8916015625
1591.0,4094.2405598958335
1592.0,4094.4280598958335
1593.0,4098.897786458333
1594.0,4095.541015625
1595.0,4102.718424479167
1596.0,4105.3671875
1597.0,4101.224283854167
1598.0,4097.487630208333
1599.0,4102.292643229167
1600.0,4100.192057291667
1601.0,4100.968424479167
1602.0,4104.667317708333
1603.0,4103.3232421875
1604.0,4109.564127604166
1605.0,4108.457682291667
1606.0,4108.668294270833
1607.0,4112.513020833333
1608.0,4108.375651041667
1609.0,4114.0986328125
1610.0,4118.520182291667
1611.0,4115.629557291667
1612.0,4114.625651041666
1613.0,4119.954752604166
1614.0,4118.436197916667
1615.0,4118.722330729167
1616.0,4123.106770833334
1617.0,4121.758463541667
1618.0,4127.568033854167
1619.0,4122.12890625
1620.0,4125.6025390625
1621.0,4130.3544921875
1622.0,4135.385416666666
1623.0,4130.905924479167
1624.0,4135.286783854166
1625.0,4134.9853515625
1626.0,4128.247395833334
1627.0,4137.522786458334
1628.0,4132.8701171875
1629.0,4135.968098958334
1630.0,4137.373372395834
1631.0,4141.812825520833
1632.0,4143.3447265625
1633.0,4143.957356770833
1634.0,4144.76953125
1635.0,4144.172526041666
1636.0,4147.162109375
1637.0,4147.166666666666
1638.0,4151.6328125
1639.0,4150.693359375
1640.0,4159.726888020834
1641.0,4154.623697916667
1642.0,4157.528645833334
1643.0,4155.703776041666
1644.0,4153.680013020834
1645.0,4157.1494140625
1646.0,4158.738932291667
1647.0,4159.098307291666
1648.0,4164.272786458333
1649.0,4169.257486979166
1650.0,4163.3818359375
1651.0,4166.444986979166
1652.0,4176.639322916667
1653.0,4174.215169270833
1654.0,4171.078125
1655.0,4169.702473958333
1656.0,4172.929361979166
1657.0,4176.619791666667
1658.0,4176.54296875
1659.0,4178.077473958334
1660.0,4186.332682291667
1661.0,4185.771809895833
1662.0,4182.351236979166
1663.0,4189.004557291666
1664.0,4183.939127604167
1665.0,4188.964518229167
1666.0,4188.114908854166
1667.0,4190.946614583334
1668.0,4195.248697916666
1669.0,4198.371744791667
1670.0,4195.699869791666
1671.0,4209.9111328125
1672.0,4204.539388020834
1673.0,4206.123046875
1674.0,4205.813802083334
1675.0,4206.309244791666
1676.0,4206.688802083334
1677.0,4213.412434895834
1678.0,4209.773763020833
1679.0,4211.114583333333
1680.0,4212.134440104167
1681.0,4219.081380208333
1682.0,4219.266276041666
1683.0,4218.425455729166
1684.0,4219.628255208334
1685.0,4231.556640625
1686.0,4225.0517578125
1687.0,4227.757161458334
1688.0,4229.621744791666
1689.0,4230.816731770833
1690.0,4232.749674479166
1691.0,4238.24609375
1692.0,4244.259114583334
1693.0,4237.1630859375
1694.0,4245.728190104166
1695.0,4244.965494791666
1696.0,4243.66796875
1697.0,4249.651041666666
1698.0,4249.948893229166
1699.0,4263.8466796875
1700.0,4254.15625
1701.0,4254.2451171875
1702.0,4257.198567708334
1703.0,4263.073567708333
1704.0,4270.2744140625
1705.0,4264.9609375
1706.0,4270.311848958333
1707.0,4270.505208333334
1708.0,4276.4228515625
1709.0,4274.224934895834
1710.0,4280.794596354166
1711.0,4282.574544270834
1712.0,4280.892578125
1713.0,4282.258138020833
1714.0,4289.7763671875
1715.0,4292.1455078125
1716.0,4291.430338541666
1717.0,4293.785807291666
1718.0,4298.875325520834
1719.0,4303.2548828125
1720.0,4301.236328125
1721.0,4303.345377604166
1722.0,4305.642252604167
1723.0,4311.361979166667
1724.0,4317.701497395834
1725.0,4314.895182291666
1726.0,4317.535807291667
1727.0,4318.635416666666
1728.0,4328.989583333334
1729.0,4324.044270833334
1730.0,4331.640299479166
1731.0,4327.7841796875
1732.0,4333.460611979167
1733.0,4337.280924479166
1734.0,4342.3876953125
1735.0,4341.570963541666
1736.0,4343.066731770834
1737.0,4346.884440104167
1738.0,4353.4248046875
1739.0,4363.947265625
1740.0,4358.712239583334
1741.0,4363.805989583334
1742.0,4360.9658203125
1743.0,4364.261067708333
1744.0,4367.056640625
1745.0,4367.875
1746.0,4373.4541015625
1747.0,4376.697591145833
1748.0,4386.1044921875
1749.0,4386.521484375
1750.0,4387.298502604167
1751.0,4395.972330729166
1752.0,4393.693684895833
1753.0,4397.220377604166
1754.0,4397.133138020834
1755.0,4401.895833333333
1756.0,4406.561848958334
1757.0,4409.174479166667
1758.0,4416.6826171875
1759.0,4416.432942708334
1760.0,4416.916015625
1761.0,4419.125
1762.0,4424.577799479167
1763.0,4427.0908203125
1764.0,4431.581705729166
1765.0,4436.258138020833
1766.0,4436.240885416667
1767.0,4440.65234375
1768.0,4445.140625
1769.0,4460.747395833334
1770.0,4452.313802083334
1771.0,4464.2060546875
1772.0,4458.294921875
1773.0,4458.707356770834
1774.0,4466.1884765625
1775.0,4470.5615234375
1776.0,4470.2255859375
1777.0,4476.649739583334
1778.0,4482.561197916666
1779.0,4482.032877604167
1780.0,4488.720052083334
1781.0,4493.058919270834
1782.0,4501.063151041666
1783.0,4504.123372395834
1784.0,4505.774088541666
1785.0,4507.548177083333
1786.0,4512.355143229167
1787.0,4512.630208333334
1788.0,4521.971028645834
1789.0,4521.621419270834
1790.0,4531.044596354167
1791.0,4534.8857421875
1792.0,4535.7666015625
1793.0,4538.309895833334
1794.0,4545.732747395834
1795.0,4550.632161458334
1796.0,4556.235026041666
1797.0,4554.597981770833
1798.0,4558.556640625
1799.0,4561.9462890625
1800.0,4571.393880208334
1801.0,4571.169270833334
1802.0,4577.4140625
1803.0,4580.660807291667
1804.0,4584.7783203125
1805.0,4590.4775390625
1806.0,4592.680013020833
1807.0,4602.649739583333
1808.0,4600.648763020834
1809.0,4607.751302083333
1810.0,4614.1923828125
1811.0,4616.102864583334
1812.0,4615.699869791666
1813.0,4623.120442708334
1814.0,4631.953450520834
1815.0,4634.888671875
1816.0,4641.0751953125
1817.0,4644.216796875
1818.0,4645.859375
1819.0,4655.8173828125
1820.0,4662.067057291667
1821.0,4663.0810546875
1822.0,4666.739908854166
1823.0,4682.3544921875
1824.0,4681.030598958334
1825.0,4685.400390625
1826.0,4689.296875
1827.0,4694.167643229167
1828.0,4695.805338541666
1829.0,4700.733072916667
1830.0,4702.758463541666
1831.0,4709.189778645833
1832.0,4714.968424479166
1833.0,4730.195963541667
1834.0,4727.6171875
1835.0,4727.553059895834
1836.0,4734.7353515625
1837.0,4751.741861979166
1838.0,4748.670247395834
1839.0,4751.213216145834
1840.0,4758.041015625
1841.0,4756.989583333333
1842.0,4770.283528645834
1843.0,4770.771158854166
1844.0,4780.690755208334
1845.0,4785.664388020833
1846.0,4787.892903645834
1847.0,4788.861653645833
1848.0,4805.200520833334
1849.0,4805.274088541666
1850.0,4812.060221354167
1851.0,4815.161458333334
1852.0,4824.023763020833
1853.0,4825.453125
1854.0,4832.705729166666
1855.0,4838.777669270834
1856.0,4844.579752604166
1857.0,4847.101888020834
1858.0,4861.852213541666
1859.0,4864.794596354166
1860.0,4863.551432291666
1861.0,4876.885416666667
1862.0,4878.173177083334
1863.0,4880.894205729166
1864.0,4891.321614583334
1865.0,4895.346028645834
1866.0,4899.813151041666
1867.0,4907.597981770833
1868.0,4909.9736328125
1869.0,4917.160807291666
1870.0,4932.6533203125
1871.0,4936.32421875
1872.0,4937.906575520834
1873.0,4944.70703125
1874.0,4949.381510416667
1875.0,4958.080078125
1876.0,4967.008138020833
1877.0,4966.124348958334
1878.0,4973.221354166667
1879.0,4978.878580729166
1880.0,4985.561848958334
1881.0,4991.421223958333
1882.0,4992.983723958334
1883.0,5011.8896484375
1884.0,5013.040364583333
1885.0,5017.390625
1886.0,5022.280924479166
1887.0,5031.277994791667
1888.0,5036.267578125
1889.0,5043.158854166666
1890.0,5053.883138020834
1891.0,5058.2275390625
1892.0,5057.864908854167
1893.0,5067.9365234375
1894.0,5073.022786458333
1895.0,5073.682942708333
1896.0,5087.380208333334
1897.0,5084.120442708333
1898.0,5096.271809895834
1899.0,5099.8916015625
1900.0,5106.306966145833
1901.0,5114.741536458333
1902.0,5118.5869140625
1903.0,5125.632486979167
1904.0,5130.043294270834
1905.0,5146.3046875
1906.0,5152.354817708333
1907.0,5153.158203125
1908.0,5161.8125
1909.0,5168.739908854166
1910.0,5171.1474609375
1911.0,5179.546875
1912.0,5191.926106770834
1913.0,5193.9033203125
1914.0,5196.693359375
1915.0,5203.865885416667
1916.0,5215.611653645834
1917.0,5216.04296875
1918.0,5225.315755208334
1919.0,5234.4296875
1920.0,5241.357096354166
1921.0,5250.519205729166
1922.0,5252.495768229166
1923.0,5253.793619791666
1924.0,5261.728190104166
1925.0,5276.080729166666
1926.0,5286.2724609375
1927.0,5290.415690104166
1928.0,5293.044596354167
1929.0,5291.649739583334
1930.0,5305.268880208334
1931.0,5311.838541666667
1932.0,5322.039388020833
1933.0,5325.7587890625
1934.0,5328.610026041666
1935.0,5337.663736979166
1936.0,5344.197265625
1937.0,5352.474283854167
1938.0,5360.1640625
1939.0,5366.275065104166
1940.0,5371.490885416667
1941.0,5374.602864583334
1942.0,5388.9697265625
1943.0,5391.302408854166
1944.0,5408.218424479166
1945.0,5408.447265625
1946.0,5414.861328125
1947.0,5419.8193359375
1948.0,5432.2138671875
1949.0,5435.6083984375
1950.0,5446.94140625
1951.0,5444.069010416666
1952.0,5457.091471354166
1953.0,5462.263997395833
1954.0,5473.6943359375
1955.0,5478.463541666667
1956.0,5505.609700520834
1957.0,5490.2265625
1958.0,5497.543294270833
1959.0,5505.609700520834
1960.0,5514.3564453125
1961.0,5514.041015625
1962.0,5526.8779296875
1963.0,5529.022135416666
1964.0,5540.4384765625
1965.0,5555.7861328125
1966.0,5555.973958333333
1967.0,5556.699869791667
1968.0,5570.7783203125
1969.0,5573.9501953125
1970.0,5583.688151041666
1971.0,5586.4130859375
1972.0,5597.064127604166
1973.0,5597.808919270834
1974.0,5603.244140625
1975.0,5622.042317708334
1976.0,5623.3388671875
1977.0,5636.1982421875
1978.0,5646.408854166667
1979.0,5646.163736979167
1980.0,5656.320963541666
1981.0,5671.40234375
1982.0,5674.98828125
1983.0,5678.29296875
1984.0,5686.563802083334
1985.0,5691.8095703125
1986.0,5701.872721354166
1987.0,5713.439453125
1988.0,5713.416341145834
1989.0,5720.11328125
1990.0,5725.059244791666
1991.0,5739.295572916666
1992.0,5750.3720703125
1993.0,5749.328125
1994.0,5758.53125
1995.0,5765.514322916667
1996.0,5784.977864583334
1997.0,5784.786458333334
1998.0,5792.977213541666
1999.0,5799.991861979167
2000.0,5810.705078125
2001.0,5814.431315104166
2002.0,5819.933268229166
2003.0,5828.83984375
2004.0,5834.570963541667
2005.0,5847.748697916666
2006.0,5854.820638020833
2007.0,5866.370442708334
2008.0,5871.252278645834
2009.0,5876.564127604167
2010.0,5889.7998046875
2011.0,5888.064127604166
2012.0,5898.308268229166
2013.0,5911.77734375
2014.0,5923.338216145834
2015.0,5925.2392578125
2016.0,5936.388346354167
2017.0,5940.0654296875
2018.0,5961.335286458333
2019.0,5957.981770833333
2020.0,5971.88671875
2021.0,5972.4619140625
2022.0,5985.061197916667
2023.0,5991.884440104166
2024.0,6004.512044270834
2025.0,6007.435221354167
2026.0,6022.428059895833
2027.0,6029.2294921875
2028.0,6046.4921875
2029.0,6046.347005208333
2030.0,6053.589518229166
2031.0,6060.937174479166
2032.0,6085.603515625
2033.0,6075.0322265625
2034.0,6085.724934895833
2035.0,6103.11328125
2036.0,6105.905598958334
2037.0,6118.211263020834
2038.0,6120.94140625
2039.0,6133.4619140625
2040.0,6146.890950520834
2041.0,6156.5634765625
2042.0,6152.1435546875
2043.0,6165.336263020834
2044.0,6174.192057291667
2045.0,6188.98046875
2046.0,6201.263020833334
2047.0,6215.044596354166
