Pixels #,Intensity (a.u.)
0.00000e+00,7.86813e-01
1.00000e+00,7.86493e-01
2.00000e+00,7.90769e-01
3.00000e+00,7.85206e-01
4.00000e+00,7.86356e-01
5.00000e+00,7.87062e-01
6.00000e+00,7.87332e-01
7.00000e+00,7.87476e-01
8.00000e+00,7.87745e-01
9.00000e+00,7.88853e-01
1.00000e+01,7.86010e-01
1.10000e+01,7.88082e-01
1.20000e+01,7.92204e-01
1.30000e+01,7.86718e-01
1.40000e+01,7.85990e-01
1.50000e+01,7.89842e-01
1.60000e+01,7.86585e-01
1.70000e+01,7.87540e-01
1.80000e+01,7.89091e-01
1.90000e+01,7.84592e-01
2.00000e+01,7.85724e-01
2.10000e+01,7.87657e-01
2.20000e+01,7.87232e-01
2.30000e+01,7.85041e-01
2.40000e+01,7.85188e-01
2.50000e+01,7.85743e-01
2.60000e+01,7.86179e-01
2.70000e+01,7.87160e-01
2.80000e+01,7.87438e-01
2.90000e+01,7.85406e-01
3.00000e+01,7.86820e-01
3.10000e+01,7.92089e-01
3.20000e+01,7.91355e-01
3.30000e+01,7.87525e-01
3.40000e+01,7.87309e-01
3.50000e+01,7.88991e-01
3.60000e+01,7.86440e-01
3.70000e+01,7.87005e-01
3.80000e+01,7.88164e-01
3.90000e+01,8.17197e-01
4.00000e+01,7.87863e-01
4.10000e+01,7.89894e-01
4.20000e+01,7.84912e-01
4.30000e+01,7.85356e-01
4.40000e+01,7.87698e-01
4.50000e+01,7.87851e-01
4.60000e+01,7.85960e-01
4.70000e+01,7.89573e-01
4.80000e+01,7.90156e-01
4.90000e+01,7.88546e-01
5.00000e+01,7.86660e-01
5.10000e+01,7.87200e-01
5.20000e+01,7.89327e-01
5.30000e+01,7.88078e-01
5.40000e+01,7.99772e-01
5.50000e+01,7.87639e-01
5.60000e+01,7.91071e-01
5.70000e+01,7.86737e-01
5.80000e+01,7.85424e-01
5.90000e+01,7.86460e-01
6.00000e+01,7.88744e-01
6.10000e+01,7.87355e-01
6.20000e+01,7.84869e-01
6.30000e+01,7.84569e-01
6.40000e+01,7.87917e-01
6.50000e+01,7.86552e-01
6.60000e+01,7.86233e-01
6.70000e+01,7.88365e-01
6.80000e+01,7.88551e-01
6.90000e+01,7.86803e-01
7.00000e+01,7.86098e-01
7.10000e+01,7.92177e-01
7.20000e+01,7.86669e-01
7.30000e+01,7.87427e-01
7.40000e+01,7.84920e-01
7.50000e+01,7.84658e-01
7.60000e+01,7.85466e-01
7.70000e+01,7.85370e-01
7.80000e+01,7.87223e-01
7.90000e+01,7.85629e-01
8.00000e+01,7.86961e-01
8.10000e+01,7.87511e-01
8.20000e+01,7.86626e-01
8.30000e+01,7.86364e-01
8.40000e+01,7.85842e-01
8.50000e+01,7.85556e-01
8.60000e+01,7.90278e-01
8.70000e+01,7.85592e-01
8.80000e+01,7.86223e-01
8.90000e+01,7.87890e-01
9.00000e+01,7.88116e-01
9.10000e+01,7.92776e-01
9.20000e+01,7.85720e-01
9.30000e+01,7.85032e-01
9.40000e+01,7.85162e-01
9.50000e+01,7.86803e-01
9.60000e+01,7.86208e-01
9.70000e+01,7.86388e-01
9.80000e+01,7.84607e-01
9.90000e+01,7.86787e-01
1.00000e+02,7.85464e-01
1.01000e+02,7.86835e-01
1.02000e+02,7.87583e-01
1.03000e+02,7.90704e-01
1.04000e+02,7.85603e-01
1.05000e+02,7.87541e-01
1.06000e+02,7.90208e-01
1.07000e+02,7.86149e-01
1.08000e+02,7.86698e-01
1.09000e+02,7.85141e-01
1.10000e+02,7.83938e-01
1.11000e+02,7.85446e-01
1.12000e+02,7.90423e-01
1.13000e+02,7.85323e-01
1.14000e+02,7.84554e-01
1.15000e+02,7.85207e-01
1.16000e+02,7.88225e-01
1.17000e+02,7.84752e-01
1.18000e+02,7.85594e-01
1.19000e+02,7.91239e-01
1.20000e+02,7.84953e-01
1.21000e+02,7.87463e-01
1.22000e+02,7.85140e-01
1.23000e+02,7.85432e-01
1.24000e+02,7.89429e-01
1.25000e+02,7.86710e-01
1.26000e+02,7.85425e-01
1.27000e+02,7.86874e-01
1.28000e+02,7.88332e-01
1.29000e+02,7.85479e-01
1.30000e+02,7.86722e-01
1.31000e+02,7.87679e-01
1.32000e+02,7.90238e-01
1.33000e+02,7.83238e-01
1.34000e+02,7.88631e-01
1.35000e+02,7.86027e-01
1.36000e+02,7.86301e-01
1.37000e+02,7.85733e-01
1.38000e+02,7.85322e-01
1.39000e+02,7.90477e-01
1.40000e+02,7.86736e-01
1.41000e+02,7.85255e-01
1.42000e+02,7.88757e-01
1.43000e+02,7.88379e-01
1.44000e+02,7.88443e-01
1.45000e+02,7.85023e-01
1.46000e+02,7.89140e-01
1.47000e+02,7.86173e-01
1.48000e+02,7.86154e-01
1.49000e+02,7.89702e-01
1.50000e+02,7.86715e-01
1.51000e+02,7.90683e-01
1.52000e+02,7.85633e-01
1.53000e+02,7.86725e-01
1.54000e+02,7.91660e-01
1.55000e+02,7.85782e-01
1.56000e+02,7.87162e-01
1.57000e+02,7.86159e-01
1.58000e+02,7.85380e-01
1.59000e+02,7.96449e-01
1.60000e+02,7.87234e-01
1.61000e+02,7.86663e-01
1.62000e+02,7.86864e-01
1.63000e+02,7.87178e-01
1.64000e+02,7.86120e-01
1.65000e+02,7.85489e-01
1.66000e+02,7.85741e-01
1.67000e+02,7.87030e-01
1.68000e+02,7.85484e-01
1.69000e+02,7.86840e-01
1.70000e+02,7.87196e-01
1.71000e+02,7.84690e-01
1.72000e+02,7.87702e-01
1.73000e+02,7.88632e-01
1.74000e+02,7.86463e-01
1.75000e+02,7.85280e-01
1.76000e+02,7.88875e-01
1.77000e+02,7.83373e-01
1.78000e+02,7.82379e-01
1.79000e+02,7.85417e-01
1.80000e+02,7.87795e-01
1.81000e+02,7.93164e-01
1.82000e+02,7.87557e-01
1.83000e+02,7.87003e-01
1.84000e+02,7.88509e-01
1.85000e+02,7.94998e-01
1.86000e+02,7.88118e-01
1.87000e+02,7.88268e-01
1.88000e+02,7.92504e-01
1.89000e+02,7.92278e-01
1.90000e+02,7.92285e-01
1.91000e+02,7.92841e-01
1.92000e+02,7.95373e-01
1.93000e+02,7.95032e-01
1.94000e+02,7.90923e-01
1.95000e+02,7.93080e-01
1.96000e+02,7.91293e-01
1.97000e+02,7.95516e-01
1.98000e+02,7.91982e-01
1.99000e+02,7.85478e-01
2.00000e+02,7.86559e-01
2.01000e+02,7.85601e-01
2.02000e+02,7.85946e-01
2.03000e+02,7.85591e-01
2.04000e+02,7.86440e-01
2.05000e+02,7.89188e-01
2.06000e+02,7.90259e-01
2.07000e+02,7.85705e-01
2.08000e+02,7.85013e-01
2.09000e+02,7.85416e-01
2.10000e+02,7.85015e-01
2.11000e+02,7.86961e-01
2.12000e+02,7.90809e-01
2.13000e+02,7.87612e-01
2.14000e+02,7.88427e-01
2.15000e+02,7.86580e-01
2.16000e+02,7.88518e-01
2.17000e+02,7.88476e-01
2.18000e+02,7.87899e-01
2.19000e+02,7.84299e-01
2.20000e+02,7.87009e-01
2.21000e+02,7.87771e-01
2.22000e+02,7.86094e-01
2.23000e+02,7.86876e-01
2.24000e+02,7.87371e-01
2.25000e+02,7.89054e-01
2.26000e+02,7.87786e-01
2.27000e+02,7.87367e-01
2.28000e+02,7.86038e-01
2.29000e+02,7.88804e-01
2.30000e+02,7.88697e-01
2.31000e+02,7.87854e-01
2.32000e+02,7.88148e-01
2.33000e+02,7.88156e-01
2.34000e+02,7.88083e-01
2.35000e+02,7.88979e-01
2.36000e+02,7.87023e-01
2.37000e+02,7.86130e-01
2.38000e+02,7.91008e-01
2.39000e+02,7.88458e-01
2.40000e+02,7.85950e-01
2.41000e+02,7.87292e-01
2.42000e+02,7.89096e-01
2.43000e+02,7.86922e-01
2.44000e+02,7.86843e-01
2.45000e+02,7.89180e-01
2.46000e+02,7.88934e-01
2.47000e+02,7.90453e-01
2.48000e+02,7.87464e-01
2.49000e+02,8.03778e-01
2.50000e+02,7.86266e-01
2.51000e+02,7.89259e-01
2.52000e+02,7.87344e-01
2.53000e+02,7.87348e-01
2.54000e+02,7.89123e-01
2.55000e+02,7.86637e-01
2.56000e+02,7.87421e-01
2.57000e+02,7.89751e-01
2.58000e+02,7.85568e-01
2.59000e+02,7.86350e-01
2.60000e+02,7.87850e-01
2.61000e+02,7.89580e-01
2.62000e+02,7.84956e-01
2.63000e+02,7.89177e-01
2.64000e+02,7.85232e-01
2.65000e+02,7.87272e-01
2.66000e+02,7.86708e-01
2.67000e+02,7.92318e-01
2.68000e+02,7.91407e-01
2.69000e+02,7.87108e-01
2.70000e+02,7.88988e-01
2.71000e+02,7.88636e-01
2.72000e+02,7.87690e-01
2.73000e+02,7.95597e-01
2.74000e+02,7.89916e-01
2.75000e+02,7.86526e-01
2.76000e+02,7.87827e-01
2.77000e+02,7.86567e-01
2.78000e+02,7.86879e-01
2.79000e+02,7.88072e-01
2.80000e+02,7.86523e-01
2.81000e+02,7.88233e-01
2.82000e+02,7.89081e-01
2.83000e+02,7.87128e-01
2.84000e+02,7.87255e-01
2.85000e+02,7.87481e-01
2.86000e+02,7.87888e-01
2.87000e+02,7.87064e-01
2.88000e+02,7.85294e-01
2.89000e+02,8.14762e-01
2.90000e+02,7.85951e-01
2.91000e+02,7.88759e-01
2.92000e+02,7.91663e-01
2.93000e+02,7.87166e-01
2.94000e+02,7.89302e-01
2.95000e+02,8.01562e-01
2.96000e+02,7.87225e-01
2.97000e+02,7.89163e-01
2.98000e+02,7.90146e-01
2.99000e+02,7.97619e-01
3.00000e+02,7.88935e-01
3.01000e+02,8.21534e-01
3.02000e+02,7.89357e-01
3.03000e+02,7.87571e-01
3.04000e+02,7.87069e-01
3.05000e+02,7.88650e-01
3.06000e+02,7.89121e-01
3.07000e+02,7.89698e-01
3.08000e+02,7.88292e-01
3.09000e+02,7.90210e-01
3.10000e+02,7.84468e-01
3.11000e+02,8.21132e-01
3.12000e+02,7.87241e-01
3.13000e+02,7.90074e-01
3.14000e+02,7.85805e-01
3.15000e+02,7.86838e-01
3.16000e+02,7.93091e-01
3.17000e+02,7.92813e-01
3.18000e+02,7.88788e-01
3.19000e+02,7.88099e-01
3.20000e+02,7.86402e-01
3.21000e+02,7.86940e-01
3.22000e+02,7.88477e-01
3.23000e+02,7.89950e-01
3.24000e+02,7.86810e-01
3.25000e+02,7.87542e-01
3.26000e+02,7.87255e-01
3.27000e+02,7.88251e-01
3.28000e+02,7.87389e-01
3.29000e+02,7.89705e-01
3.30000e+02,7.88504e-01
3.31000e+02,7.87187e-01
3.32000e+02,7.86998e-01
3.33000e+02,7.86486e-01
3.34000e+02,7.85028e-01
3.35000e+02,7.89349e-01
3.36000e+02,7.88597e-01
3.37000e+02,7.86857e-01
3.38000e+02,7.89283e-01
3.39000e+02,7.89869e-01
3.40000e+02,7.86790e-01
3.41000e+02,7.91194e-01
3.42000e+02,7.85294e-01
3.43000e+02,7.89257e-01
3.44000e+02,7.87760e-01
3.45000e+02,7.87091e-01
3.46000e+02,7.87481e-01
3.47000e+02,7.88899e-01
3.48000e+02,7.86433e-01
3.49000e+02,7.87747e-01
3.50000e+02,7.88242e-01
3.51000e+02,7.91062e-01
3.52000e+02,7.90396e-01
3.53000e+02,7.93218e-01
3.54000e+02,7.90586e-01
3.55000e+02,7.90156e-01
3.56000e+02,7.91416e-01
3.57000e+02,7.92425e-01
3.58000e+02,7.92958e-01
3.59000e+02,8.03215e-01
3.60000e+02,8.12071e-01
3.61000e+02,8.16054e-01
3.62000e+02,8.12672e-01
3.63000e+02,8.16236e-01
3.64000e+02,8.11568e-01
3.65000e+02,8.14516e-01
3.66000e+02,8.12975e-01
3.67000e+02,8.12138e-01
3.68000e+02,8.12663e-01
3.69000e+02,8.12466e-01
3.70000e+02,8.00139e-01
3.71000e+02,8.00522e-01
3.72000e+02,7.95006e-01
3.73000e+02,7.96189e-01
3.74000e+02,7.95602e-01
3.75000e+02,7.94431e-01
3.76000e+02,7.93591e-01
3.77000e+02,7.95140e-01
3.78000e+02,8.01579e-01
3.79000e+02,7.93958e-01
3.80000e+02,7.92963e-01
3.81000e+02,7.91881e-01
3.82000e+02,7.88791e-01
3.83000e+02,7.90085e-01
3.84000e+02,7.88333e-01
3.85000e+02,7.87877e-01
3.86000e+02,8.03902e-01
3.87000e+02,7.88085e-01
3.88000e+02,7.88421e-01
3.89000e+02,7.85670e-01
3.90000e+02,7.89990e-01
3.91000e+02,7.90337e-01
3.92000e+02,7.87853e-01
3.93000e+02,7.87467e-01
3.94000e+02,7.85890e-01
3.95000e+02,7.87127e-01
3.96000e+02,7.88763e-01
3.97000e+02,7.86501e-01
3.98000e+02,7.86434e-01
3.99000e+02,7.89770e-01
4.00000e+02,7.90902e-01
4.01000e+02,7.88407e-01
4.02000e+02,7.88187e-01
4.03000e+02,7.89029e-01
4.04000e+02,7.88167e-01
4.05000e+02,8.00829e-01
4.06000e+02,7.88244e-01
4.07000e+02,7.88674e-01
4.08000e+02,7.90726e-01
4.09000e+02,7.87011e-01
4.10000e+02,7.88171e-01
4.11000e+02,7.87453e-01
4.12000e+02,7.89238e-01
4.13000e+02,7.91189e-01
4.14000e+02,7.87626e-01
4.15000e+02,7.88034e-01
4.16000e+02,7.86473e-01
4.17000e+02,7.91606e-01
4.18000e+02,7.89493e-01
4.19000e+02,7.90884e-01
4.20000e+02,7.98227e-01
4.21000e+02,8.03051e-01
4.22000e+02,8.02969e-01
4.23000e+02,8.01733e-01
4.24000e+02,8.01226e-01
4.25000e+02,8.01508e-01
4.26000e+02,8.04303e-01
4.27000e+02,8.02640e-01
4.28000e+02,8.03280e-01
4.29000e+02,8.01054e-01
4.30000e+02,7.96851e-01
4.31000e+02,7.90892e-01
4.32000e+02,7.92102e-01
4.33000e+02,8.02374e-01
4.34000e+02,7.94370e-01
4.35000e+02,7.90708e-01
4.36000e+02,7.90953e-01
4.37000e+02,7.86995e-01
4.38000e+02,7.87709e-01
4.39000e+02,7.89729e-01
4.40000e+02,7.89995e-01
4.41000e+02,7.90701e-01
4.42000e+02,7.88670e-01
4.43000e+02,7.87100e-01
4.44000e+02,7.89613e-01
4.45000e+02,7.87453e-01
4.46000e+02,7.87526e-01
4.47000e+02,7.92081e-01
4.48000e+02,7.88148e-01
4.49000e+02,7.89241e-01
4.50000e+02,7.90497e-01
4.51000e+02,7.88183e-01
4.52000e+02,7.89487e-01
4.53000e+02,7.97209e-01
4.54000e+02,7.89468e-01
4.55000e+02,7.89427e-01
4.56000e+02,7.90114e-01
4.57000e+02,7.91714e-01
4.58000e+02,7.95504e-01
4.59000e+02,7.91893e-01
4.60000e+02,7.88992e-01
4.61000e+02,7.89705e-01
4.62000e+02,7.88251e-01
4.63000e+02,7.90005e-01
4.64000e+02,7.90214e-01
4.65000e+02,7.88471e-01
4.66000e+02,7.87905e-01
4.67000e+02,7.88007e-01
4.68000e+02,7.89209e-01
4.69000e+02,7.90831e-01
4.70000e+02,7.90890e-01
4.71000e+02,7.91134e-01
4.72000e+02,7.90001e-01
4.73000e+02,7.95193e-01
4.74000e+02,8.03037e-01
4.75000e+02,8.02176e-01
4.76000e+02,8.15515e-01
4.77000e+02,8.03213e-01
4.78000e+02,8.02805e-01
4.79000e+02,8.03213e-01
4.80000e+02,8.01930e-01
4.81000e+02,8.03795e-01
4.82000e+02,8.03670e-01
4.83000e+02,8.03813e-01
4.84000e+02,7.95237e-01
4.85000e+02,7.92263e-01
4.86000e+02,7.93215e-01
4.87000e+02,7.92283e-01
4.88000e+02,7.87928e-01
4.89000e+02,7.90111e-01
4.90000e+02,7.88392e-01
4.91000e+02,7.89223e-01
4.92000e+02,7.88976e-01
4.93000e+02,7.91915e-01
4.94000e+02,8.07492e-01
4.95000e+02,7.91971e-01
4.96000e+02,7.90631e-01
4.97000e+02,7.91569e-01
4.98000e+02,7.89277e-01
4.99000e+02,7.87966e-01
5.00000e+02,7.88438e-01
5.01000e+02,7.92313e-01
5.02000e+02,8.04340e-01
5.03000e+02,7.91763e-01
5.04000e+02,7.89046e-01
5.05000e+02,7.88735e-01
5.06000e+02,7.88672e-01
5.07000e+02,7.89888e-01
5.08000e+02,7.89604e-01
5.09000e+02,7.89899e-01
5.10000e+02,7.88140e-01
5.11000e+02,7.89960e-01
5.12000e+02,7.94170e-01
5.13000e+02,7.90287e-01
5.14000e+02,7.90689e-01
5.15000e+02,7.90873e-01
5.16000e+02,7.89237e-01
5.17000e+02,7.96026e-01
5.18000e+02,7.90104e-01
5.19000e+02,7.93590e-01
5.20000e+02,7.92419e-01
5.21000e+02,7.97958e-01
5.22000e+02,7.89899e-01
5.23000e+02,7.93172e-01
5.24000e+02,7.91200e-01
5.25000e+02,7.98273e-01
5.26000e+02,8.17668e-01
5.27000e+02,8.42733e-01
5.28000e+02,8.50439e-01
5.29000e+02,8.52152e-01
5.30000e+02,8.51362e-01
5.31000e+02,8.48731e-01
5.32000e+02,8.65240e-01
5.33000e+02,8.51019e-01
5.34000e+02,8.51897e-01
5.35000e+02,8.55865e-01
5.36000e+02,8.39285e-01
5.37000e+02,8.17150e-01
5.38000e+02,7.96838e-01
5.39000e+02,7.92618e-01
5.40000e+02,7.91753e-01
5.41000e+02,7.93129e-01
5.42000e+02,7.90924e-01
5.43000e+02,7.91333e-01
5.44000e+02,7.92484e-01
5.45000e+02,7.93348e-01
5.46000e+02,7.92649e-01
5.47000e+02,7.91573e-01
5.48000e+02,7.93964e-01
5.49000e+02,7.96765e-01
5.50000e+02,7.98957e-01
5.51000e+02,8.01248e-01
5.52000e+02,8.05828e-01
5.53000e+02,8.03268e-01
5.54000e+02,8.11528e-01
5.55000e+02,8.87048e-01
5.56000e+02,1.00917e+00
5.57000e+02,1.08335e+00
5.58000e+02,1.08770e+00
5.59000e+02,1.08838e+00
5.60000e+02,1.08616e+00
5.61000e+02,1.08387e+00
5.62000e+02,1.08067e+00
5.63000e+02,1.07843e+00
5.64000e+02,1.07560e+00
5.65000e+02,1.04490e+00
5.66000e+02,9.35637e-01
5.67000e+02,8.38436e-01
5.68000e+02,8.04587e-01
5.69000e+02,7.99048e-01
5.70000e+02,7.96085e-01
5.71000e+02,7.93740e-01
5.72000e+02,7.93309e-01
5.73000e+02,8.05970e-01
5.74000e+02,7.92089e-01
5.75000e+02,7.90868e-01
5.76000e+02,7.95290e-01
5.77000e+02,7.92804e-01
5.78000e+02,7.92446e-01
5.79000e+02,7.97414e-01
5.80000e+02,7.90624e-01
5.81000e+02,7.94647e-01
5.82000e+02,7.92589e-01
5.83000e+02,7.91797e-01
5.84000e+02,7.95110e-01
5.85000e+02,8.08346e-01
5.86000e+02,7.92388e-01
5.87000e+02,7.92457e-01
5.88000e+02,7.94244e-01
5.89000e+02,7.90758e-01
5.90000e+02,7.91020e-01
5.91000e+02,7.91120e-01
5.92000e+02,7.95949e-01
5.93000e+02,7.94845e-01
5.94000e+02,7.93822e-01
5.95000e+02,7.93819e-01
5.96000e+02,7.92132e-01
5.97000e+02,7.93276e-01
5.98000e+02,7.93593e-01
5.99000e+02,7.90329e-01
6.00000e+02,7.98273e-01
6.01000e+02,7.92980e-01
6.02000e+02,7.93353e-01
6.03000e+02,7.91380e-01
6.04000e+02,7.92081e-01
6.05000e+02,7.98821e-01
6.06000e+02,8.02050e-01
6.07000e+02,7.94674e-01
6.08000e+02,7.93116e-01
6.09000e+02,7.93660e-01
6.10000e+02,7.95264e-01
6.11000e+02,7.96937e-01
6.12000e+02,7.95642e-01
6.13000e+02,7.91842e-01
6.14000e+02,7.96748e-01
6.15000e+02,7.93832e-01
6.16000e+02,7.92941e-01
6.17000e+02,7.92598e-01
6.18000e+02,7.96179e-01
6.19000e+02,7.98350e-01
6.20000e+02,7.93626e-01
6.21000e+02,7.96065e-01
6.22000e+02,7.97058e-01
6.23000e+02,7.96797e-01
6.24000e+02,7.97756e-01
6.25000e+02,7.95571e-01
6.26000e+02,7.95806e-01
6.27000e+02,7.97251e-01
6.28000e+02,8.13118e-01
6.29000e+02,8.30964e-01
6.30000e+02,8.72789e-01
6.31000e+02,8.47778e-01
6.32000e+02,8.45937e-01
6.33000e+02,8.44637e-01
6.34000e+02,8.44676e-01
6.35000e+02,8.44174e-01
6.36000e+02,8.45873e-01
6.37000e+02,8.45780e-01
6.38000e+02,8.37971e-01
6.39000e+02,8.17699e-01
6.40000e+02,8.02896e-01
6.41000e+02,8.02950e-01
6.42000e+02,8.03762e-01
6.43000e+02,8.02820e-01
6.44000e+02,8.04818e-01
6.45000e+02,8.04474e-01
6.46000e+02,8.05732e-01
6.47000e+02,8.03539e-01
6.48000e+02,8.03944e-01
6.49000e+02,8.03724e-01
6.50000e+02,8.06714e-01
6.51000e+02,8.05414e-01
6.52000e+02,8.03985e-01
6.53000e+02,8.03571e-01
6.54000e+02,8.04208e-01
6.55000e+02,8.09287e-01
6.56000e+02,8.32647e-01
6.57000e+02,8.97782e-01
6.58000e+02,9.52393e-01
6.59000e+02,9.73714e-01
6.60000e+02,9.75450e-01
6.61000e+02,9.76515e-01
6.62000e+02,9.76125e-01
6.63000e+02,9.77599e-01
6.64000e+02,9.75041e-01
6.65000e+02,9.74582e-01
6.66000e+02,9.77357e-01
6.67000e+02,9.23288e-01
6.68000e+02,8.57940e-01
6.69000e+02,8.21126e-01
6.70000e+02,8.11804e-01
6.71000e+02,8.10840e-01
6.72000e+02,8.86203e-01
6.73000e+02,8.10732e-01
6.74000e+02,8.10777e-01
6.75000e+02,8.11975e-01
6.76000e+02,8.11379e-01
6.77000e+02,8.11934e-01
6.78000e+02,8.11868e-01
6.79000e+02,8.12618e-01
6.80000e+02,8.15977e-01
6.81000e+02,8.16844e-01
6.82000e+02,8.19682e-01
6.83000e+02,8.17502e-01
6.84000e+02,8.16733e-01
6.85000e+02,8.14933e-01
6.86000e+02,8.20323e-01
6.87000e+02,8.22258e-01
6.88000e+02,8.21404e-01
6.89000e+02,8.25125e-01
6.90000e+02,8.26838e-01
6.91000e+02,8.31425e-01
6.92000e+02,8.31433e-01
6.93000e+02,8.32176e-01
6.94000e+02,8.35246e-01
6.95000e+02,8.39654e-01
6.96000e+02,8.41934e-01
6.97000e+02,8.51843e-01
6.98000e+02,8.57369e-01
6.99000e+02,8.61065e-01
7.00000e+02,8.80023e-01
7.01000e+02,8.70979e-01
7.02000e+02,8.83724e-01
7.03000e+02,8.83532e-01
7.04000e+02,8.88871e-01
7.05000e+02,9.00549e-01
7.06000e+02,9.13171e-01
7.07000e+02,9.26913e-01
7.08000e+02,9.42423e-01
7.09000e+02,9.57045e-01
7.10000e+02,9.84684e-01
7.11000e+02,1.03048e+00
7.12000e+02,1.10755e+00
7.13000e+02,1.24930e+00
7.14000e+02,2.17176e+00
7.15000e+02,5.99012e+00
7.16000e+02,1.00629e+01
7.17000e+02,1.27294e+01
7.18000e+02,1.27906e+01
7.19000e+02,1.27908e+01
7.20000e+02,1.27890e+01
7.21000e+02,1.27886e+01
7.22000e+02,1.27936e+01
7.23000e+02,1.27936e+01
7.24000e+02,1.27921e+01
7.25000e+02,1.27888e+01
7.26000e+02,1.27874e+01
7.27000e+02,8.61725e+00
7.28000e+02,3.26021e+00
7.29000e+02,1.83454e+00
7.30000e+02,1.39042e+00
7.31000e+02,1.18892e+00
7.32000e+02,1.08140e+00
7.33000e+02,1.01441e+00
7.34000e+02,9.72812e-01
7.35000e+02,9.49359e-01
7.36000e+02,9.31996e-01
7.37000e+02,9.18265e-01
7.38000e+02,9.02258e-01
7.39000e+02,8.92959e-01
7.40000e+02,8.84595e-01
7.41000e+02,8.77549e-01
7.42000e+02,8.76722e-01
7.43000e+02,8.65386e-01
7.44000e+02,8.59767e-01
7.45000e+02,8.59421e-01
7.46000e+02,8.50649e-01
7.47000e+02,8.49852e-01
7.48000e+02,8.57917e-01
7.49000e+02,8.43348e-01
7.50000e+02,8.40757e-01
7.51000e+02,8.41811e-01
7.52000e+02,8.52883e-01
7.53000e+02,8.73434e-01
7.54000e+02,8.87002e-01
7.55000e+02,9.00247e-01
7.56000e+02,8.85889e-01
7.57000e+02,8.83300e-01
7.58000e+02,8.80928e-01
7.59000e+02,8.80138e-01
7.60000e+02,8.81141e-01
7.61000e+02,8.76961e-01
7.62000e+02,8.72298e-01
7.63000e+02,8.53895e-01
7.64000e+02,8.37612e-01
7.65000e+02,8.28304e-01
7.66000e+02,8.32289e-01
7.67000e+02,8.51037e-01
7.68000e+02,1.11586e+00
7.69000e+02,1.93314e+00
7.70000e+02,2.91856e+00
7.71000e+02,3.44438e+00
7.72000e+02,3.53352e+00
7.73000e+02,3.54214e+00
7.74000e+02,3.54834e+00
7.75000e+02,3.53709e+00
7.76000e+02,3.52797e+00
7.77000e+02,3.50710e+00
7.78000e+02,3.42364e+00
7.79000e+02,2.94757e+00
7.80000e+02,1.95025e+00
7.81000e+02,1.14736e+00
7.82000e+02,9.13418e-01
7.83000e+02,9.07819e-01
7.84000e+02,8.32982e-01
7.85000e+02,8.22123e-01
7.86000e+02,8.21414e-01
7.87000e+02,8.13986e-01
7.88000e+02,8.10654e-01
7.89000e+02,8.13694e-01
7.90000e+02,8.10656e-01
7.91000e+02,8.10033e-01
7.92000e+02,8.09294e-01
7.93000e+02,8.05570e-01
7.94000e+02,8.04431e-01
7.95000e+02,8.08717e-01
7.96000e+02,9.02255e-01
7.97000e+02,8.02030e-01
7.98000e+02,8.15605e-01
7.99000e+02,8.02965e-01
8.00000e+02,8.04198e-01
8.01000e+02,8.03322e-01
8.02000e+02,8.01692e-01
8.03000e+02,8.02483e-01
8.04000e+02,8.03171e-01
8.05000e+02,8.09940e-01
8.06000e+02,8.32271e-01
8.07000e+02,8.75601e-01
8.08000e+02,9.04250e-01
8.09000e+02,9.16874e-01
8.10000e+02,9.18549e-01
8.11000e+02,9.44996e-01
8.12000e+02,9.29172e-01
8.13000e+02,9.30743e-01
8.14000e+02,9.52993e-01
8.15000e+02,9.70883e-01
8.16000e+02,9.65213e-01
8.17000e+02,9.30646e-01
8.18000e+02,8.92192e-01
8.19000e+02,8.67666e-01
8.20000e+02,8.61426e-01
8.21000e+02,8.61224e-01
8.22000e+02,8.58450e-01
8.23000e+02,8.54845e-01
8.24000e+02,8.37781e-01
8.25000e+02,8.18232e-01
8.26000e+02,8.08626e-01
8.27000e+02,8.15731e-01
8.28000e+02,8.23850e-01
8.29000e+02,8.26158e-01
8.30000e+02,8.24847e-01
8.31000e+02,8.27129e-01
8.32000e+02,8.25130e-01
8.33000e+02,8.29708e-01
8.34000e+02,8.25436e-01
8.35000e+02,8.29718e-01
8.36000e+02,8.28693e-01
8.37000e+02,8.28504e-01
8.38000e+02,8.26265e-01
8.39000e+02,8.18369e-01
8.40000e+02,8.17987e-01
8.41000e+02,8.16743e-01
8.42000e+02,8.18337e-01
8.43000e+02,8.19285e-01
8.44000e+02,8.17648e-01
8.45000e+02,8.23164e-01
8.46000e+02,8.19150e-01
8.47000e+02,8.17267e-01
8.48000e+02,8.21106e-01
8.49000e+02,7.96993e-01
8.50000e+02,7.97399e-01
8.51000e+02,7.99102e-01
8.52000e+02,7.97769e-01
8.53000e+02,7.98763e-01
8.54000e+02,8.01076e-01
8.55000e+02,7.99852e-01
8.56000e+02,7.97858e-01
8.57000e+02,8.04597e-01
8.58000e+02,7.99640e-01
8.59000e+02,7.98659e-01
8.60000e+02,8.00266e-01
8.61000e+02,8.02105e-01
8.62000e+02,8.02819e-01
8.63000e+02,8.20012e-01
8.64000e+02,8.01612e-01
8.65000e+02,8.06134e-01
8.66000e+02,8.11192e-01
8.67000e+02,8.21778e-01
8.68000e+02,8.08937e-01
8.69000e+02,8.10520e-01
8.70000e+02,8.11231e-01
8.71000e+02,8.09600e-01
8.72000e+02,8.10627e-01
8.73000e+02,8.17991e-01
8.74000e+02,8.35567e-01
8.75000e+02,8.15752e-01
8.76000e+02,8.18952e-01
8.77000e+02,8.18080e-01
8.78000e+02,8.21294e-01
8.79000e+02,8.27881e-01
8.80000e+02,8.37535e-01
8.81000e+02,8.55883e-01
8.82000e+02,1.10806e+00
8.83000e+02,2.08762e+00
8.84000e+02,3.76886e+00
8.85000e+02,5.15463e+00
8.86000e+02,5.62300e+00
8.87000e+02,5.72141e+00
8.88000e+02,5.73296e+00
8.89000e+02,5.73886e+00
8.90000e+02,5.72388e+00
8.91000e+02,5.69499e+00
8.92000e+02,5.61055e+00
8.93000e+02,5.08125e+00
8.94000e+02,3.76747e+00
8.95000e+02,2.04674e+00
8.96000e+02,1.15141e+00
8.97000e+02,9.37062e-01
8.98000e+02,8.71898e-01
8.99000e+02,8.43341e-01
9.00000e+02,8.31697e-01
9.01000e+02,8.20156e-01
9.02000e+02,8.15886e-01
9.03000e+02,8.12726e-01
9.04000e+02,8.10951e-01
9.05000e+02,8.13247e-01
9.06000e+02,8.12671e-01
9.07000e+02,8.68555e-01
9.08000e+02,8.06466e-01
9.09000e+02,8.06119e-01
9.10000e+02,8.06713e-01
9.11000e+02,8.06453e-01
9.12000e+02,8.04481e-01
9.13000e+02,8.04695e-01
9.14000e+02,8.06180e-01
9.15000e+02,8.10958e-01
9.16000e+02,8.10791e-01
9.17000e+02,8.12926e-01
9.18000e+02,8.13766e-01
9.19000e+02,8.12677e-01
9.20000e+02,8.20940e-01
9.21000e+02,8.35945e-01
9.22000e+02,8.54083e-01
9.23000e+02,8.65763e-01
9.24000e+02,8.65844e-01
9.25000e+02,8.64690e-01
9.26000e+02,8.62519e-01
9.27000e+02,8.59781e-01
9.28000e+02,8.57638e-01
9.29000e+02,8.57874e-01
9.30000e+02,8.53039e-01
9.31000e+02,8.49601e-01
9.32000e+02,8.27833e-01
9.33000e+02,8.13150e-01
9.34000e+02,8.62522e-01
9.35000e+02,8.07031e-01
9.36000e+02,8.09490e-01
9.37000e+02,8.40827e-01
9.38000e+02,9.77373e-01
9.39000e+02,1.28752e+00
9.40000e+02,1.73124e+00
9.41000e+02,2.04188e+00
9.42000e+02,2.14207e+00
9.43000e+02,2.15997e+00
9.44000e+02,2.16344e+00
9.45000e+02,2.16434e+00
9.46000e+02,2.15306e+00
9.47000e+02,2.14203e+00
9.48000e+02,2.07648e+00
9.49000e+02,1.86776e+00
9.50000e+02,1.48783e+00
9.51000e+02,1.06703e+00
9.52000e+02,8.78561e-01
9.53000e+02,8.35406e-01
9.54000e+02,8.15874e-01
9.55000e+02,8.06519e-01
9.56000e+02,8.06207e-01
9.57000e+02,8.02747e-01
9.58000e+02,8.00498e-01
9.59000e+02,8.02108e-01
9.60000e+02,8.02727e-01
9.61000e+02,8.08327e-01
9.62000e+02,8.25730e-01
9.63000e+02,8.37652e-01
9.64000e+02,8.49169e-01
9.65000e+02,8.50810e-01
9.66000e+02,8.46862e-01
9.67000e+02,8.49108e-01
9.68000e+02,8.51709e-01
9.69000e+02,8.63044e-01
9.70000e+02,8.66483e-01
9.71000e+02,8.91893e-01
9.72000e+02,8.57785e-01
9.73000e+02,8.40834e-01
9.74000e+02,8.35536e-01
9.75000e+02,8.28033e-01
9.76000e+02,8.19077e-01
9.77000e+02,8.19533e-01
9.78000e+02,8.17515e-01
9.79000e+02,8.13046e-01
9.80000e+02,8.03741e-01
9.81000e+02,7.94882e-01
9.82000e+02,7.95496e-01
9.83000e+02,7.96227e-01
9.84000e+02,7.98467e-01
9.85000e+02,8.01122e-01
9.86000e+02,8.06718e-01
9.87000e+02,8.07290e-01
9.88000e+02,8.05490e-01
9.89000e+02,8.04999e-01
9.90000e+02,8.05914e-01
9.91000e+02,8.06075e-01
9.92000e+02,8.06557e-01
9.93000e+02,8.06148e-01
9.94000e+02,8.03911e-01
9.95000e+02,8.04726e-01
9.96000e+02,8.07841e-01
9.97000e+02,7.97813e-01
9.98000e+02,7.96865e-01
9.99000e+02,8.02411e-01
1.00000e+03,7.95776e-01
1.00100e+03,7.96824e-01
1.00200e+03,7.96598e-01
1.00300e+03,7.94750e-01
1.00400e+03,7.94263e-01
1.00500e+03,7.94936e-01
1.00600e+03,7.94391e-01
1.00700e+03,7.96824e-01
1.00800e+03,7.99706e-01
1.00900e+03,7.94022e-01
1.01000e+03,7.95919e-01
1.01100e+03,7.96590e-01
1.01200e+03,7.97675e-01
1.01300e+03,7.94826e-01
1.01400e+03,7.95110e-01
1.01500e+03,7.97438e-01
1.01600e+03,7.94463e-01
1.01700e+03,7.95663e-01
1.01800e+03,7.96429e-01
1.01900e+03,7.98714e-01
1.02000e+03,7.97825e-01
1.02100e+03,8.00272e-01
1.02200e+03,8.09698e-01
1.02300e+03,7.97505e-01
1.02400e+03,7.97444e-01
1.02500e+03,7.98592e-01
1.02600e+03,7.96759e-01
1.02700e+03,7.99823e-01
1.02800e+03,7.98785e-01
1.02900e+03,8.01242e-01
1.03000e+03,8.00135e-01
1.03100e+03,8.01740e-01
1.03200e+03,8.02739e-01
1.03300e+03,8.05634e-01
1.03400e+03,8.05449e-01
1.03500e+03,8.04945e-01
1.03600e+03,8.24276e-01
1.03700e+03,9.56558e-01
1.03800e+03,1.26588e+00
1.03900e+03,1.77128e+00
1.04000e+03,2.18326e+00
1.04100e+03,2.32105e+00
1.04200e+03,2.35879e+00
1.04300e+03,2.36951e+00
1.04400e+03,2.37603e+00
1.04500e+03,2.36262e+00
1.04600e+03,2.35461e+00
1.04700e+03,2.29673e+00
1.04800e+03,2.10122e+00
1.04900e+03,1.69813e+00
1.05000e+03,1.17639e+00
1.05100e+03,9.10284e-01
1.05200e+03,8.45307e-01
1.05300e+03,8.19578e-01
1.05400e+03,8.10932e-01
1.05500e+03,8.06297e-01
1.05600e+03,8.04204e-01
1.05700e+03,8.01151e-01
1.05800e+03,8.01311e-01
1.05900e+03,8.00967e-01
1.06000e+03,8.02353e-01
1.06100e+03,7.99026e-01
1.06200e+03,7.98637e-01
1.06300e+03,8.01524e-01
1.06400e+03,7.98876e-01
1.06500e+03,7.98059e-01
1.06600e+03,7.98766e-01
1.06700e+03,8.00072e-01
1.06800e+03,8.01967e-01
1.06900e+03,8.01847e-01
1.07000e+03,8.02411e-01
1.07100e+03,8.03180e-01
1.07200e+03,8.01565e-01
1.07300e+03,8.04731e-01
1.07400e+03,8.03333e-01
1.07500e+03,8.01415e-01
1.07600e+03,8.02718e-01
1.07700e+03,8.00346e-01
1.07800e+03,7.99833e-01
1.07900e+03,8.02041e-01
1.08000e+03,7.99796e-01
1.08100e+03,7.97141e-01
1.08200e+03,7.99726e-01
1.08300e+03,8.02624e-01
1.08400e+03,8.08777e-01
1.08500e+03,8.19290e-01
1.08600e+03,7.98529e-01
1.08700e+03,8.03556e-01
1.08800e+03,7.96860e-01
1.08900e+03,7.99854e-01
1.09000e+03,8.11609e-01
1.09100e+03,7.97538e-01
1.09200e+03,8.00933e-01
1.09300e+03,8.00092e-01
1.09400e+03,8.00613e-01
1.09500e+03,8.08165e-01
1.09600e+03,7.99319e-01
1.09700e+03,8.05209e-01
1.09800e+03,8.05795e-01
1.09900e+03,8.01975e-01
1.10000e+03,8.02998e-01
1.10100e+03,8.11409e-01
1.10200e+03,8.11382e-01
1.10300e+03,8.14802e-01
1.10400e+03,8.14790e-01
1.10500e+03,8.19787e-01
1.10600e+03,8.14852e-01
1.10700e+03,8.17817e-01
1.10800e+03,8.17665e-01
1.10900e+03,8.20965e-01
1.11000e+03,8.20542e-01
1.11100e+03,8.26261e-01
1.11200e+03,8.24756e-01
1.11300e+03,8.25951e-01
1.11400e+03,8.27122e-01
1.11500e+03,8.30538e-01
1.11600e+03,8.47176e-01
1.11700e+03,1.04617e+00
1.11800e+03,1.67877e+00
1.11900e+03,2.94041e+00
1.12000e+03,4.57846e+00
1.12100e+03,5.57675e+00
1.12200e+03,5.91725e+00
1.12300e+03,6.00486e+00
1.12400e+03,6.01213e+00
1.12500e+03,6.01498e+00
1.12600e+03,5.99369e+00
1.12700e+03,5.93855e+00
1.12800e+03,5.56673e+00
1.12900e+03,4.70930e+00
1.13000e+03,3.17327e+00
1.13100e+03,1.67300e+00
1.13200e+03,1.09408e+00
1.13300e+03,9.32223e-01
1.13400e+03,8.78812e-01
1.13500e+03,8.53560e-01
1.13600e+03,8.38786e-01
1.13700e+03,8.35474e-01
1.13800e+03,8.31130e-01
1.13900e+03,8.27230e-01
1.14000e+03,8.25342e-01
1.14100e+03,8.28825e-01
1.14200e+03,8.25813e-01
1.14300e+03,8.23797e-01
1.14400e+03,8.28285e-01
1.14500e+03,8.26523e-01
1.14600e+03,8.29228e-01
1.14700e+03,8.27994e-01
1.14800e+03,8.31720e-01
1.14900e+03,8.30402e-01
1.15000e+03,8.30394e-01
1.15100e+03,8.35239e-01
1.15200e+03,8.39252e-01
1.15300e+03,8.44481e-01
1.15400e+03,8.52439e-01
1.15500e+03,8.73620e-01
1.15600e+03,9.35032e-01
1.15700e+03,1.52052e+00
1.15800e+03,2.84634e+00
1.15900e+03,5.31058e+00
1.16000e+03,7.88764e+00
1.16100e+03,9.06903e+00
1.16200e+03,9.42400e+00
1.16300e+03,9.52078e+00
1.16400e+03,9.53833e+00
1.16500e+03,9.53382e+00
1.16600e+03,9.48868e+00
1.16700e+03,9.39098e+00
1.16800e+03,8.54864e+00
1.16900e+03,6.84919e+00
1.17000e+03,4.03528e+00
1.17100e+03,1.87682e+00
1.17200e+03,1.20231e+00
1.17300e+03,9.93938e-01
1.17400e+03,9.11507e-01
1.17500e+03,8.75138e-01
1.17600e+03,8.51799e-01
1.17700e+03,8.41829e-01
1.17800e+03,8.36579e-01
1.17900e+03,8.29319e-01
1.18000e+03,8.26455e-01
1.18100e+03,8.25047e-01
1.18200e+03,8.18691e-01
1.18300e+03,8.21844e-01
1.18400e+03,8.15859e-01
1.18500e+03,8.14354e-01
1.18600e+03,8.28920e-01
1.18700e+03,8.16122e-01
1.18800e+03,8.12758e-01
1.18900e+03,8.10210e-01
1.19000e+03,8.12200e-01
1.19100e+03,8.11149e-01
1.19200e+03,8.08427e-01
1.19300e+03,8.11828e-01
1.19400e+03,8.10357e-01
1.19500e+03,8.10954e-01
1.19600e+03,8.10055e-01
1.19700e+03,8.09227e-01
1.19800e+03,8.13968e-01
1.19900e+03,8.25733e-01
1.20000e+03,8.18603e-01
1.20100e+03,8.16215e-01
1.20200e+03,8.15827e-01
1.20300e+03,8.17058e-01
1.20400e+03,8.14584e-01
1.20500e+03,8.18352e-01
1.20600e+03,8.17290e-01
1.20700e+03,8.16545e-01
1.20800e+03,8.14585e-01
1.20900e+03,8.13309e-01
1.21000e+03,8.09964e-01
1.21100e+03,8.05934e-01
1.21200e+03,8.08428e-01
1.21300e+03,8.08656e-01
1.21400e+03,8.10511e-01
1.21500e+03,8.15965e-01
1.21600e+03,8.40734e-01
1.21700e+03,8.81467e-01
1.21800e+03,9.60127e-01
1.21900e+03,1.02943e+00
1.22000e+03,1.05689e+00
1.22100e+03,1.07078e+00
1.22200e+03,1.11337e+00
1.22300e+03,1.07422e+00
1.22400e+03,1.07388e+00
1.22500e+03,1.07276e+00
1.22600e+03,1.06289e+00
1.22700e+03,1.03588e+00
1.22800e+03,9.77444e-01
1.22900e+03,8.98938e-01
1.23000e+03,8.53509e-01
1.23100e+03,8.51177e-01
1.23200e+03,8.37011e-01
1.23300e+03,8.40356e-01
1.23400e+03,8.41741e-01
1.23500e+03,8.44621e-01
1.23600e+03,8.47939e-01
1.23700e+03,8.54894e-01
1.23800e+03,8.63118e-01
1.23900e+03,8.75866e-01
1.24000e+03,8.92451e-01
1.24100e+03,9.68975e-01
1.24200e+03,1.61444e+00
1.24300e+03,3.12664e+00
1.24400e+03,5.92189e+00
1.24500e+03,9.15602e+00
1.24600e+03,1.11719e+01
1.24700e+03,1.17229e+01
1.24800e+03,1.18352e+01
1.24900e+03,1.19015e+01
1.25000e+03,1.18993e+01
1.25100e+03,1.18990e+01
1.25200e+03,1.18822e+01
1.25300e+03,1.18363e+01
1.25400e+03,1.06709e+01
1.25500e+03,7.04478e+00
1.25600e+03,3.29146e+00
1.25700e+03,1.67362e+00
1.25800e+03,1.20500e+00
1.25900e+03,1.01555e+00
1.26000e+03,9.43496e-01
1.26100e+03,9.09390e-01
1.26200e+03,8.81987e-01
1.26300e+03,8.70014e-01
1.26400e+03,8.65840e-01
1.26500e+03,8.57180e-01
1.26600e+03,8.55992e-01
1.26700e+03,8.52517e-01
1.26800e+03,8.45431e-01
1.26900e+03,8.40752e-01
1.27000e+03,8.37536e-01
1.27100e+03,8.34688e-01
1.27200e+03,8.35469e-01
1.27300e+03,8.34383e-01
1.27400e+03,8.31976e-01
1.27500e+03,8.37045e-01
1.27600e+03,8.34695e-01
1.27700e+03,8.38307e-01
1.27800e+03,8.47052e-01
1.27900e+03,9.64717e-01
1.28000e+03,1.32229e+00
1.28100e+03,2.00914e+00
1.28200e+03,3.17410e+00
1.28300e+03,4.16603e+00
1.28400e+03,4.56916e+00
1.28500e+03,4.71883e+00
1.28600e+03,4.76585e+00
1.28700e+03,4.79309e+00
1.28800e+03,4.78086e+00
1.28900e+03,4.72491e+00
1.29000e+03,4.51039e+00
1.29100e+03,4.02808e+00
1.29200e+03,3.13232e+00
1.29300e+03,1.91338e+00
1.29400e+03,1.17877e+00
1.29500e+03,9.57261e-01
1.29600e+03,8.80132e-01
1.29700e+03,8.46688e-01
1.29800e+03,8.29142e-01
1.29900e+03,8.23999e-01
1.30000e+03,8.20227e-01
1.30100e+03,8.17844e-01
1.30200e+03,8.24500e-01
1.30300e+03,8.23271e-01
1.30400e+03,8.28206e-01
1.30500e+03,8.28781e-01
1.30600e+03,8.29961e-01
1.30700e+03,8.27245e-01
1.30800e+03,8.25178e-01
1.30900e+03,8.25650e-01
1.31000e+03,8.27855e-01
1.31100e+03,8.20869e-01
1.31200e+03,8.19046e-01
1.31300e+03,8.15669e-01
1.31400e+03,8.14741e-01
1.31500e+03,8.21144e-01
1.31600e+03,8.31710e-01
1.31700e+03,8.42719e-01
1.31800e+03,8.50291e-01
1.31900e+03,8.46993e-01
1.32000e+03,8.51549e-01
1.32100e+03,8.47207e-01
1.32200e+03,8.46646e-01
1.32300e+03,8.58620e-01
1.32400e+03,8.39786e-01
1.32500e+03,8.35054e-01
1.32600e+03,8.25321e-01
1.32700e+03,8.13457e-01
1.32800e+03,8.07641e-01
1.32900e+03,8.09298e-01
1.33000e+03,8.08399e-01
1.33100e+03,8.08044e-01
1.33200e+03,8.07544e-01
1.33300e+03,8.05989e-01
1.33400e+03,8.05708e-01
1.33500e+03,8.11129e-01
1.33600e+03,8.07872e-01
1.33700e+03,8.07117e-01
1.33800e+03,8.10968e-01
1.33900e+03,8.06968e-01
1.34000e+03,8.19641e-01
1.34100e+03,8.02900e-01
1.34200e+03,8.01908e-01
1.34300e+03,8.04157e-01
1.34400e+03,8.02765e-01
1.34500e+03,8.06083e-01
1.34600e+03,8.00665e-01
1.34700e+03,8.02161e-01
1.34800e+03,7.98460e-01
1.34900e+03,8.01536e-01
1.35000e+03,8.05801e-01
1.35100e+03,8.00656e-01
1.35200e+03,8.00145e-01
1.35300e+03,7.99661e-01
1.35400e+03,7.99908e-01
1.35500e+03,8.00553e-01
1.35600e+03,8.01925e-01
1.35700e+03,8.03882e-01
1.35800e+03,8.07919e-01
1.35900e+03,8.11192e-01
1.36000e+03,8.15628e-01
1.36100e+03,8.14971e-01
1.36200e+03,8.16573e-01
1.36300e+03,8.19068e-01
1.36400e+03,8.16549e-01
1.36500e+03,8.16065e-01
1.36600e+03,8.18311e-01
1.36700e+03,8.16944e-01
1.36800e+03,8.16141e-01
1.36900e+03,8.16574e-01
1.37000e+03,8.10601e-01
1.37100e+03,8.11113e-01
1.37200e+03,8.17978e-01
1.37300e+03,8.28867e-01
1.37400e+03,8.43179e-01
1.37500e+03,8.58365e-01
1.37600e+03,8.85776e-01
1.37700e+03,1.03724e+00
1.37800e+03,1.32728e+00
1.37900e+03,1.88651e+00
1.38000e+03,2.69906e+00
1.38100e+03,3.27895e+00
1.38200e+03,3.48624e+00
1.38300e+03,3.56182e+00
1.38400e+03,3.58531e+00
1.38500e+03,3.58007e+00
1.38600e+03,3.56343e+00
1.38700e+03,3.49976e+00
1.38800e+03,3.29145e+00
1.38900e+03,2.91649e+00
1.39000e+03,2.20629e+00
1.39100e+03,1.41518e+00
1.39200e+03,1.03048e+00
1.39300e+03,8.97239e-01
1.39400e+03,8.49791e-01
1.39500e+03,8.31930e-01
1.39600e+03,8.22430e-01
1.39700e+03,8.19368e-01
1.39800e+03,8.13223e-01
1.39900e+03,8.13541e-01
1.40000e+03,8.10331e-01
1.40100e+03,8.09613e-01
1.40200e+03,8.09219e-01
1.40300e+03,8.10800e-01
1.40400e+03,8.04215e-01
1.40500e+03,8.05398e-01
1.40600e+03,8.03681e-01
1.40700e+03,7.99980e-01
1.40800e+03,8.02512e-01
1.40900e+03,8.01708e-01
1.41000e+03,8.02483e-01
1.41100e+03,8.00902e-01
1.41200e+03,8.06160e-01
1.41300e+03,8.01656e-01
1.41400e+03,8.00875e-01
1.41500e+03,8.03995e-01
1.41600e+03,8.02274e-01
1.41700e+03,8.03163e-01
1.41800e+03,8.01581e-01
1.41900e+03,8.03089e-01
1.42000e+03,8.03843e-01
1.42100e+03,7.98936e-01
1.42200e+03,8.06387e-01
1.42300e+03,7.98356e-01
1.42400e+03,8.01231e-01
1.42500e+03,7.99843e-01
1.42600e+03,7.99153e-01
1.42700e+03,8.07395e-01
1.42800e+03,8.08693e-01
1.42900e+03,8.00117e-01
1.43000e+03,8.02406e-01
1.43100e+03,8.00953e-01
1.43200e+03,8.04701e-01
1.43300e+03,8.06616e-01
1.43400e+03,8.10629e-01
1.43500e+03,8.09223e-01
1.43600e+03,8.09368e-01
1.43700e+03,8.13772e-01
1.43800e+03,8.17255e-01
1.43900e+03,8.12246e-01
1.44000e+03,8.11715e-01
1.44100e+03,8.13662e-01
1.44200e+03,8.13543e-01
1.44300e+03,8.11358e-01
1.44400e+03,8.07224e-01
1.44500e+03,8.08220e-01
1.44600e+03,8.07073e-01
1.44700e+03,8.19209e-01
1.44800e+03,8.06817e-01
1.44900e+03,8.06092e-01
1.45000e+03,8.09586e-01
1.45100e+03,8.09186e-01
1.45200e+03,8.10757e-01
1.45300e+03,8.12034e-01
1.45400e+03,8.18403e-01
1.45500e+03,8.20969e-01
1.45600e+03,8.24496e-01
1.45700e+03,8.27797e-01
1.45800e+03,8.27473e-01
1.45900e+03,8.33470e-01
1.46000e+03,8.38164e-01
1.46100e+03,8.53704e-01
1.46200e+03,8.45699e-01
1.46300e+03,8.53379e-01
1.46400e+03,8.61055e-01
1.46500e+03,9.06363e-01
1.46600e+03,1.11226e+00
1.46700e+03,1.69805e+00
1.46800e+03,2.78366e+00
1.46900e+03,4.78560e+00
1.47000e+03,7.01039e+00
1.47100e+03,8.22266e+00
1.47200e+03,8.64193e+00
1.47300e+03,8.82420e+00
1.47400e+03,8.91824e+00
1.47500e+03,8.93515e+00
1.47600e+03,8.87011e+00
1.47700e+03,8.48899e+00
1.47800e+03,7.74647e+00
1.47900e+03,6.36703e+00
1.48000e+03,4.07540e+00
1.48100e+03,2.09644e+00
1.48200e+03,1.32660e+00
1.48300e+03,1.06867e+00
1.48400e+03,9.48180e-01
1.48500e+03,8.89751e-01
1.48600e+03,8.65400e-01
1.48700e+03,8.52836e-01
1.48800e+03,8.41233e-01
1.48900e+03,8.38018e-01
1.49000e+03,8.36698e-01
1.49100e+03,8.28951e-01
1.49200e+03,8.28064e-01
1.49300e+03,8.21810e-01
1.49400e+03,8.17230e-01
1.49500e+03,8.16365e-01
1.49600e+03,8.14900e-01
1.49700e+03,8.11201e-01
1.49800e+03,8.12016e-01
1.49900e+03,8.10847e-01
1.50000e+03,8.05626e-01
1.50100e+03,8.04919e-01
1.50200e+03,8.06998e-01
1.50300e+03,8.06688e-01
1.50400e+03,8.05209e-01
1.50500e+03,8.05805e-01
1.50600e+03,8.05975e-01
1.50700e+03,8.08661e-01
1.50800e+03,8.08253e-01
1.50900e+03,8.03486e-01
1.51000e+03,8.05542e-01
1.51100e+03,8.04387e-01
1.51200e+03,8.05838e-01
1.51300e+03,8.05968e-01
1.51400e+03,8.05191e-01
1.51500e+03,8.19097e-01
1.51600e+03,8.08224e-01
1.51700e+03,8.05223e-01
1.51800e+03,8.07694e-01
1.51900e+03,8.12432e-01
1.52000e+03,8.15362e-01
1.52100e+03,8.17358e-01
1.52200e+03,8.18590e-01
1.52300e+03,8.19610e-01
1.52400e+03,8.20244e-01
1.52500e+03,8.19459e-01
1.52600e+03,8.20498e-01
1.52700e+03,8.21191e-01
1.52800e+03,8.21778e-01
1.52900e+03,8.19491e-01
1.53000e+03,8.17996e-01
1.53100e+03,8.15232e-01
1.53200e+03,8.19585e-01
1.53300e+03,8.22861e-01
1.53400e+03,8.25628e-01
1.53500e+03,8.56820e-01
1.53600e+03,9.90351e-01
1.53700e+03,1.24704e+00
1.53800e+03,1.73468e+00
1.53900e+03,2.58236e+00
1.54000e+03,3.41655e+00
1.54100e+03,3.80277e+00
1.54200e+03,3.94323e+00
1.54300e+03,4.01579e+00
1.54400e+03,4.05542e+00
1.54500e+03,4.05534e+00
1.54600e+03,3.99245e+00
1.54700e+03,3.79712e+00
1.54800e+03,3.46451e+00
1.54900e+03,2.83529e+00
1.55000e+03,1.91506e+00
1.55100e+03,1.23603e+00
1.55200e+03,9.93249e-01
1.55300e+03,9.05378e-01
1.55400e+03,8.62554e-01
1.55500e+03,8.47886e-01
1.55600e+03,8.35859e-01
1.55700e+03,8.35553e-01
1.55800e+03,8.36912e-01
1.55900e+03,8.31453e-01
1.56000e+03,8.29645e-01
1.56100e+03,8.32974e-01
1.56200e+03,8.27527e-01
1.56300e+03,8.26242e-01
1.56400e+03,8.37183e-01
1.56500e+03,8.20931e-01
1.56600e+03,8.16103e-01
1.56700e+03,8.14146e-01
1.56800e+03,8.09715e-01
1.56900e+03,8.07687e-01
1.57000e+03,8.09601e-01
1.57100e+03,8.15048e-01
1.57200e+03,8.10523e-01
1.57300e+03,8.20803e-01
1.57400e+03,8.17003e-01
1.57500e+03,8.16332e-01
1.57600e+03,8.16476e-01
1.57700e+03,8.17998e-01
1.57800e+03,8.19694e-01
1.57900e+03,8.28909e-01
1.58000e+03,8.35033e-01
1.58100e+03,8.49071e-01
1.58200e+03,8.69584e-01
1.58300e+03,8.83932e-01
1.58400e+03,8.94154e-01
1.58500e+03,9.03857e-01
1.58600e+03,9.17414e-01
1.58700e+03,9.29210e-01
1.58800e+03,9.47795e-01
1.58900e+03,1.03839e+00
1.59000e+03,1.35162e+00
1.59100e+03,1.96298e+00
1.59200e+03,3.08243e+00
1.59300e+03,5.02797e+00
1.59400e+03,6.98184e+00
1.59500e+03,7.93604e+00
1.59600e+03,8.29768e+00
1.59700e+03,8.44943e+00
1.59800e+03,8.53261e+00
1.59900e+03,8.51698e+00
1.60000e+03,8.37784e+00
1.60100e+03,7.96364e+00
1.60200e+03,7.18371e+00
1.60300e+03,5.72887e+00
1.60400e+03,3.56210e+00
1.60500e+03,1.90558e+00
1.60600e+03,1.28798e+00
1.60700e+03,1.05860e+00
1.60800e+03,9.44968e-01
1.60900e+03,8.85756e-01
1.61000e+03,8.58625e-01
1.61100e+03,8.40172e-01
1.61200e+03,8.32108e-01
1.61300e+03,8.27337e-01
1.61400e+03,8.26379e-01
1.61500e+03,8.22250e-01
1.61600e+03,8.28448e-01
1.61700e+03,8.17259e-01
1.61800e+03,8.15852e-01
1.61900e+03,8.18814e-01
1.62000e+03,8.15080e-01
1.62100e+03,8.15504e-01
1.62200e+03,8.14835e-01
1.62300e+03,8.12981e-01
1.62400e+03,8.17678e-01
1.62500e+03,8.16252e-01
1.62600e+03,8.19322e-01
1.62700e+03,8.18569e-01
1.62800e+03,8.17824e-01
1.62900e+03,8.16954e-01
1.63000e+03,8.17222e-01
1.63100e+03,8.18973e-01
1.63200e+03,8.18051e-01
1.63300e+03,8.19160e-01
1.63400e+03,8.16258e-01
1.63500e+03,8.12307e-01
1.63600e+03,8.11601e-01
1.63700e+03,8.10013e-01
1.63800e+03,8.09389e-01
1.63900e+03,8.07082e-01
1.64000e+03,8.09076e-01
1.64100e+03,8.09605e-01
1.64200e+03,8.10277e-01
1.64300e+03,8.08876e-01
1.64400e+03,8.09710e-01
1.64500e+03,8.08637e-01
1.64600e+03,8.09140e-01
1.64700e+03,8.10853e-01
1.64800e+03,8.13987e-01
1.64900e+03,8.10400e-01
1.65000e+03,8.11953e-01
1.65100e+03,8.13387e-01
1.65200e+03,8.14474e-01
1.65300e+03,8.14522e-01
1.65400e+03,8.14466e-01
1.65500e+03,8.16288e-01
1.65600e+03,8.17616e-01
1.65700e+03,8.17360e-01
1.65800e+03,8.21158e-01
1.65900e+03,8.18486e-01
1.66000e+03,8.18371e-01
1.66100e+03,8.26499e-01
1.66200e+03,8.24479e-01
1.66300e+03,8.27494e-01
1.66400e+03,8.26058e-01
1.66500e+03,8.31700e-01
1.66600e+03,8.35422e-01
1.66700e+03,8.37321e-01
1.66800e+03,8.40827e-01
1.66900e+03,8.44735e-01
1.67000e+03,8.49455e-01
1.67100e+03,8.53755e-01
1.67200e+03,8.61402e-01
1.67300e+03,8.66960e-01
1.67400e+03,8.81321e-01
1.67500e+03,8.86659e-01
1.67600e+03,9.05048e-01
1.67700e+03,9.72438e-01
1.67800e+03,1.28324e+00
1.67900e+03,1.99703e+00
1.68000e+03,3.28459e+00
1.68100e+03,5.58541e+00
1.68200e+03,8.51507e+00
1.68300e+03,1.06197e+01
1.68400e+03,1.13849e+01
1.68500e+03,1.16309e+01
1.68600e+03,1.17085e+01
1.68700e+03,1.17484e+01
1.68800e+03,1.17821e+01
1.68900e+03,1.17693e+01
1.69000e+03,1.16264e+01
1.69100e+03,1.02128e+01
1.69200e+03,7.35771e+00
1.69300e+03,4.04573e+00
1.69400e+03,2.13639e+00
1.69500e+03,1.46892e+00
1.69600e+03,1.17932e+00
1.69700e+03,1.03952e+00
1.69800e+03,9.63515e-01
1.69900e+03,9.24537e-01
1.70000e+03,9.07756e-01
1.70100e+03,8.94208e-01
1.70200e+03,8.96233e-01
1.70300e+03,8.93182e-01
1.70400e+03,8.91782e-01
1.70500e+03,8.99134e-01
1.70600e+03,9.03571e-01
1.70700e+03,9.11803e-01
1.70800e+03,9.30247e-01
1.70900e+03,9.28241e-01
1.71000e+03,9.46841e-01
1.71100e+03,9.75890e-01
1.71200e+03,1.07652e+00
1.71300e+03,1.51218e+00
1.71400e+03,2.55571e+00
1.71500e+03,4.30505e+00
1.71600e+03,6.75391e+00
1.71700e+03,9.79976e+00
1.71800e+03,1.21606e+01
1.71900e+03,1.27123e+01
1.72000e+03,1.27587e+01
1.72100e+03,1.27759e+01
1.72200e+03,1.27808e+01
1.72300e+03,1.27776e+01
1.72400e+03,1.27818e+01
1.72500e+03,1.27773e+01
1.72600e+03,1.27813e+01
1.72700e+03,1.12688e+01
1.72800e+03,6.46482e+00
1.72900e+03,3.17814e+00
1.73000e+03,1.95940e+00
1.73100e+03,1.43978e+00
1.73200e+03,1.17923e+00
1.73300e+03,1.04574e+00
1.73400e+03,9.66602e-01
1.73500e+03,9.28270e-01
1.73600e+03,9.05070e-01
1.73700e+03,8.94311e-01
1.73800e+03,8.96479e-01
1.73900e+03,8.69790e-01
1.74000e+03,8.65821e-01
1.74100e+03,8.53502e-01
1.74200e+03,8.42999e-01
1.74300e+03,8.37749e-01
1.74400e+03,8.35139e-01
1.74500e+03,8.34263e-01
1.74600e+03,8.29776e-01
1.74700e+03,8.26650e-01
1.74800e+03,8.24689e-01
1.74900e+03,8.25065e-01
1.75000e+03,8.24935e-01
1.75100e+03,8.20958e-01
1.75200e+03,8.23719e-01
1.75300e+03,8.22981e-01
1.75400e+03,8.23499e-01
1.75500e+03,8.22050e-01
1.75600e+03,8.24151e-01
1.75700e+03,8.23673e-01
1.75800e+03,8.21613e-01
1.75900e+03,8.20992e-01
1.76000e+03,8.21509e-01
1.76100e+03,8.17309e-01
1.76200e+03,8.15119e-01
1.76300e+03,8.10938e-01
1.76400e+03,8.09655e-01
1.76500e+03,8.12458e-01
1.76600e+03,8.08706e-01
1.76700e+03,8.06058e-01
1.76800e+03,8.06721e-01
1.76900e+03,8.16734e-01
1.77000e+03,8.03147e-01
1.77100e+03,8.05296e-01
1.77200e+03,8.01859e-01
1.77300e+03,8.05682e-01
1.77400e+03,8.02628e-01
1.77500e+03,8.02916e-01
1.77600e+03,8.03827e-01
1.77700e+03,8.01779e-01
1.77800e+03,8.03744e-01
1.77900e+03,8.00235e-01
1.78000e+03,8.03055e-01
1.78100e+03,8.02247e-01
1.78200e+03,8.03611e-01
1.78300e+03,8.03326e-01
1.78400e+03,8.08910e-01
1.78500e+03,8.02312e-01
1.78600e+03,8.00819e-01
1.78700e+03,8.02362e-01
1.78800e+03,8.02298e-01
1.78900e+03,7.99886e-01
1.79000e+03,8.01363e-01
1.79100e+03,8.00642e-01
1.79200e+03,8.02042e-01
1.79300e+03,8.03886e-01
1.79400e+03,8.07126e-01
1.79500e+03,8.15056e-01
1.79600e+03,8.11483e-01
1.79700e+03,8.11640e-01
1.79800e+03,8.10891e-01
1.79900e+03,8.12344e-01
1.80000e+03,8.12587e-01
1.80100e+03,8.11177e-01
1.80200e+03,8.13675e-01
1.80300e+03,8.11065e-01
1.80400e+03,8.08302e-01
1.80500e+03,8.05443e-01
1.80600e+03,8.05450e-01
1.80700e+03,8.02248e-01
1.80800e+03,7.99571e-01
1.80900e+03,8.11118e-01
1.81000e+03,7.98177e-01
1.81100e+03,7.99560e-01
1.81200e+03,7.98015e-01
1.81300e+03,8.02087e-01
1.81400e+03,7.98170e-01
1.81500e+03,7.99489e-01
1.81600e+03,8.03013e-01
1.81700e+03,8.05049e-01
1.81800e+03,7.96947e-01
1.81900e+03,8.00290e-01
1.82000e+03,8.00097e-01
1.82100e+03,7.98251e-01
1.82200e+03,8.01642e-01
1.82300e+03,7.97112e-01
1.82400e+03,7.99831e-01
1.82500e+03,8.08833e-01
1.82600e+03,7.99892e-01
1.82700e+03,7.98272e-01
1.82800e+03,7.99871e-01
1.82900e+03,8.02825e-01
1.83000e+03,8.02117e-01
1.83100e+03,7.99221e-01
1.83200e+03,7.96497e-01
1.83300e+03,7.99713e-01
1.83400e+03,8.07764e-01
1.83500e+03,7.98124e-01
1.83600e+03,7.98870e-01
1.83700e+03,7.99325e-01
1.83800e+03,7.99971e-01
1.83900e+03,8.01053e-01
1.84000e+03,7.98712e-01
1.84100e+03,8.00076e-01
1.84200e+03,7.99073e-01
1.84300e+03,8.00478e-01
1.84400e+03,8.00207e-01
1.84500e+03,7.99527e-01
1.84600e+03,8.15012e-01
1.84700e+03,8.02244e-01
1.84800e+03,8.04459e-01
1.84900e+03,8.01775e-01
1.85000e+03,8.01293e-01
1.85100e+03,8.01257e-01
1.85200e+03,8.01798e-01
1.85300e+03,8.02049e-01
1.85400e+03,8.06238e-01
1.85500e+03,8.01080e-01
1.85600e+03,8.01071e-01
1.85700e+03,7.99204e-01
1.85800e+03,8.02605e-01
1.85900e+03,8.01942e-01
1.86000e+03,8.02194e-01
1.86100e+03,8.02966e-01
1.86200e+03,8.02202e-01
1.86300e+03,8.02049e-01
1.86400e+03,8.03062e-01
1.86500e+03,8.05785e-01
1.86600e+03,8.01828e-01
1.86700e+03,7.99973e-01
1.86800e+03,8.03210e-01
1.86900e+03,8.01978e-01
1.87000e+03,8.04155e-01
1.87100e+03,8.06803e-01
1.87200e+03,8.05576e-01
1.87300e+03,8.03724e-01
1.87400e+03,8.03497e-01
1.87500e+03,8.08539e-01
1.87600e+03,8.04132e-01
1.87700e+03,8.08451e-01
1.87800e+03,8.09609e-01
1.87900e+03,8.07767e-01
1.88000e+03,8.08474e-01
1.88100e+03,8.09068e-01
1.88200e+03,8.11963e-01
1.88300e+03,8.13578e-01
1.88400e+03,8.09603e-01
1.88500e+03,8.13462e-01
1.88600e+03,8.14960e-01
1.88700e+03,8.21027e-01
1.88800e+03,8.23081e-01
1.88900e+03,8.24382e-01
1.89000e+03,8.27098e-01
1.89100e+03,8.28091e-01
1.89200e+03,8.34401e-01
1.89300e+03,8.36209e-01
1.89400e+03,8.41781e-01
1.89500e+03,8.45678e-01
1.89600e+03,8.56788e-01
1.89700e+03,8.61241e-01
1.89800e+03,8.71835e-01
1.89900e+03,8.79192e-01
1.90000e+03,8.94818e-01
1.90100e+03,9.20697e-01
1.90200e+03,9.83792e-01
1.90300e+03,1.21515e+00
1.90400e+03,1.77030e+00
1.90500e+03,2.74667e+00
1.90600e+03,4.42253e+00
1.90700e+03,6.99895e+00
1.90800e+03,9.68382e+00
1.90900e+03,1.12980e+01
1.91000e+03,1.18697e+01
1.91100e+03,1.20864e+01
1.91200e+03,1.21665e+01
1.91300e+03,1.21921e+01
1.91400e+03,1.22067e+01
1.91500e+03,1.21712e+01
1.91600e+03,1.19358e+01
1.91700e+03,9.98957e+00
1.91800e+03,6.81110e+00
1.91900e+03,3.71488e+00
1.92000e+03,2.11918e+00
1.92100e+03,1.46844e+00
1.92200e+03,1.14331e+00
1.92300e+03,9.98949e-01
1.92400e+03,9.27363e-01
1.92500e+03,9.06511e-01
1.92600e+03,8.64123e-01
1.92700e+03,8.51080e-01
1.92800e+03,8.44758e-01
1.92900e+03,8.39767e-01
1.93000e+03,8.39627e-01
1.93100e+03,8.30074e-01
1.93200e+03,8.32534e-01
1.93300e+03,8.25481e-01
1.93400e+03,8.25195e-01
1.93500e+03,8.24756e-01
1.93600e+03,8.22652e-01
1.93700e+03,8.20060e-01
1.93800e+03,8.24656e-01
1.93900e+03,8.18385e-01
1.94000e+03,8.18473e-01
1.94100e+03,8.20526e-01
1.94200e+03,8.19802e-01
1.94300e+03,8.21657e-01
1.94400e+03,8.28248e-01
1.94500e+03,8.23699e-01
1.94600e+03,8.26734e-01
1.94700e+03,8.28089e-01
1.94800e+03,8.47037e-01
1.94900e+03,8.40163e-01
1.95000e+03,8.53650e-01
1.95100e+03,9.05407e-01
1.95200e+03,1.04671e+00
1.95300e+03,1.29958e+00
1.95400e+03,1.74485e+00
1.95500e+03,2.49623e+00
1.95600e+03,3.47383e+00
1.95700e+03,4.18773e+00
1.95800e+03,4.50287e+00
1.95900e+03,4.66319e+00
1.96000e+03,4.73581e+00
1.96100e+03,4.75090e+00
1.96200e+03,4.67745e+00
1.96300e+03,4.49083e+00
1.96400e+03,4.16898e+00
1.96500e+03,3.62040e+00
1.96600e+03,2.75552e+00
1.96700e+03,1.80777e+00
1.96800e+03,1.26030e+00
1.96900e+03,1.01769e+00
1.97000e+03,9.13671e-01
1.97100e+03,8.61654e-01
1.97200e+03,8.39175e-01
1.97300e+03,8.25230e-01
1.97400e+03,8.18918e-01
1.97500e+03,8.15770e-01
1.97600e+03,8.10270e-01
1.97700e+03,8.09370e-01
1.97800e+03,8.08301e-01
1.97900e+03,8.08721e-01
1.98000e+03,8.07742e-01
1.98100e+03,8.04097e-01
1.98200e+03,8.03755e-01
1.98300e+03,8.04576e-01
1.98400e+03,8.02108e-01
1.98500e+03,8.00145e-01
1.98600e+03,8.02430e-01
1.98700e+03,8.05718e-01
1.98800e+03,8.01516e-01
1.98900e+03,8.01123e-01
1.99000e+03,8.02388e-01
1.99100e+03,8.05196e-01
1.99200e+03,8.01662e-01
1.99300e+03,8.03343e-01
1.99400e+03,8.06569e-01
1.99500e+03,8.01972e-01
1.99600e+03,8.03386e-01
1.99700e+03,8.00363e-01
1.99800e+03,7.99766e-01
1.99900e+03,8.00061e-01
2.00000e+03,7.98477e-01
2.00100e+03,8.00890e-01
2.00200e+03,7.97941e-01
2.00300e+03,7.98343e-01
2.00400e+03,7.99433e-01
2.00500e+03,8.00980e-01
2.00600e+03,7.99418e-01
2.00700e+03,7.97289e-01
2.00800e+03,7.98850e-01
2.00900e+03,8.01556e-01
2.01000e+03,7.98224e-01
2.01100e+03,7.99402e-01
2.01200e+03,7.99179e-01
2.01300e+03,7.99525e-01
2.01400e+03,7.97104e-01
2.01500e+03,7.99035e-01
2.01600e+03,7.97288e-01
2.01700e+03,7.97917e-01
2.01800e+03,7.98702e-01
2.01900e+03,8.00054e-01
2.02000e+03,7.97364e-01
2.02100e+03,7.97556e-01
2.02200e+03,7.97396e-01
2.02300e+03,7.96995e-01
2.02400e+03,7.99512e-01
2.02500e+03,7.98144e-01
2.02600e+03,7.99551e-01
2.02700e+03,7.97902e-01
2.02800e+03,7.97786e-01
2.02900e+03,7.96259e-01
2.03000e+03,7.97336e-01
2.03100e+03,7.97310e-01
2.03200e+03,7.98770e-01
2.03300e+03,7.96588e-01
2.03400e+03,7.98694e-01
2.03500e+03,8.01272e-01
2.03600e+03,7.97499e-01
2.03700e+03,7.96675e-01
2.03800e+03,7.96025e-01
2.03900e+03,7.96570e-01
2.04000e+03,7.99078e-01
2.04100e+03,8.00599e-01
2.04200e+03,7.99416e-01
2.04300e+03,8.02525e-01
2.04400e+03,7.96461e-01
2.04500e+03,8.00273e-01
2.04600e+03,7.99834e-01
2.04700e+03,8.01946e-01